Timestamp (ms),EMG Value
0,88
2,86
4,83
6,80
8,78
10,76
12,75
14,73
16,73
18,72
20,69
22,67
24,64
26,62
28,60
30,59
32,59
34,57
36,55
38,53
40,53
42,51
44,50
46,48
48,47
50,45
52,44
54,43
56,42
58,41
61,40
63,39
65,40
67,42
69,42
71,43
73,47
75,47
77,52
79,51
81,49
83,48
85,47
87,46
89,44
91,44
93,43
95,42
97,41
99,40
101,41
103,41
105,42
107,41
109,40
111,39
113,38
115,37
117,36
119,35
121,34
123,33
125,32
127,32
129,31
131,30
133,30
135,30
137,30
139,29
141,29
143,28
146,29
148,28
150,29
152,28
154,30
156,34
158,34
160,35
162,36
164,36
166,35
168,34
170,34
172,33
174,33
176,32
178,31
180,30
182,30
184,31
186,31
189,30
191,29
193,29
195,29
197,30
199,30
201,29
203,29
205,28
207,28
209,28
211,31
213,32
215,33
217,33
219,33
221,33
223,34
225,33
227,34
229,37
231,38
233,39
235,38
237,37
239,37
241,36
243,36
245,35
247,34
249,36
251,37
253,36
255,36
257,35
259,35
261,35
263,34
265,34
267,35
269,35
271,36
274,37
276,36
278,36
280,35
282,34
284,35
286,34
288,35
290,35
292,34
294,33
296,32
298,32
300,31
302,30
304,30
306,31
308,37
310,37
312,40
314,42
317,41
319,40
321,39
323,39
325,38
327,37
329,35
331,36
333,35
335,34
337,34
339,34
341,36
343,37
345,39
347,46
349,46
351,45
353,44
355,44
357,42
359,42
361,41
363,40
365,40
367,39
369,39
371,38
373,37
375,39
377,38
379,42
381,42
383,43
385,45
387,47
389,45
391,45
393,44
395,44
397,45
399,44
402,42
404,42
406,42
408,41
410,42
412,42
414,42
416,43
418,45
420,46
422,46
424,45
426,47
428,48
430,47
432,47
434,47
436,46
438,45
440,46
442,47
445,45
447,44
449,46
451,46
453,44
455,44
457,43
459,44
461,43
463,42
465,42
467,42
469,41
471,42
473,41
475,42
477,42
479,44
481,44
483,44
485,45
487,46
489,48
491,48
493,47
495,47
497,47
499,46
501,45
503,45
505,44
507,53
509,80
511,107
513,116
515,118
517,130
519,140
521,157
523,176
525,176
527,176
530,191
532,201
534,194
536,194
538,189
540,198
542,222
544,228
546,221
548,231
550,256
552,282
554,287
556,280
558,280
560,272
562,262
564,269
566,269
568,268
570,264
573,257
575,254
577,246
579,242
581,260
583,300
585,353
587,363
589,392
591,445
593,463
595,465
597,463
599,458
601,449
603,439
605,430
607,481
609,595
611,708
613,729
615,745
617,847
619,910
621,890
623,856
625,830
627,816
629,789
631,761
633,733
635,715
637,755
639,786
641,771
643,765
645,750
647,740
649,749
651,740
653,720
655,733
658,740
660,718
662,718
664,697
666,707
668,727
670,708
672,690
674,689
676,727
678,801
680,848
682,832
684,851
686,897
688,931
690,931
692,931
694,916
696,889
698,886
701,928
703,931
705,931
707,931
709,931
711,931
713,931
715,931
717,931
719,931
721,931
723,931
725,931
727,931
729,931
731,930
733,911
735,897
737,865
739,858
741,877
743,895
745,899
747,931
749,931
751,931
753,931
755,931
757,931
759,931
761,931
763,931
765,931
767,931
769,931
771,931
773,931
775,931
777,931
779,931
781,931
783,931
786,931
788,931
790,931
792,931
794,931
796,931
798,931
800,931
802,931
804,931
806,931
808,931
810,931
812,931
814,931
816,931
818,931
820,931
822,931
824,931
826,931
829,931
831,931
833,931
835,931
837,931
839,931
841,931
843,932
845,931
847,932
849,931
851,932
853,932
855,932
857,932
859,932
861,931
863,931
865,931
867,932
869,931
871,931
873,931
875,931
877,932
879,932
881,931
883,932
885,931
887,931
889,931
891,931
893,931
895,931
897,931
899,931
901,931
903,931
905,931
907,931
909,931
911,931
914,931
916,931
918,931
920,931
922,931
924,931
926,931
928,931
930,931
932,931
934,932
936,932
938,932
940,932
942,932
944,932
946,932
948,932
950,931
952,932
954,932
957,932
959,932
961,932
963,932
965,932
967,932
969,932
971,932
973,932
975,932
977,932
979,932
981,932
983,932
985,932
987,932
989,932
991,932
993,932
995,932
997,932
999,932
1001,932
1003,932
1005,932
1007,932
1009,932
1011,932
1013,932
1015,932
1017,932
1019,932
1021,931
1023,932
1025,932
1027,932
1029,932
1031,932
1033,932
1035,932
1037,932
1039,932
1042,932
1044,932
1046,932
1048,931
1050,932
1052,932
1054,932
1056,932
1058,932
1060,932
1062,932
1064,932
1066,932
1068,932
1070,932
1072,931
1074,932
1076,932
1078,931
1080,932
1082,932
1085,932
1087,931
1089,931
1091,932
1093,932
1095,932
1097,932
1099,932
1101,931
1103,932
1105,932
1107,932
1109,932
1111,931
1113,931
1115,932
1117,932
1119,932
1121,932
1123,932
1125,932
1127,931
1129,931
1131,932
1133,932
1135,932
1137,932
1139,932
1141,932
1143,932
1145,932
1147,932
1149,932
1151,932
1153,932
1155,932
1157,932
1159,932
1161,932
1163,932
1165,932
1167,932
1170,931
1172,932
1174,932
1176,932
1178,932
1180,932
1182,932
1184,932
1186,932
1188,931
1190,932
1192,932
1194,932
1196,931
1198,932
1200,932
1202,932
1204,932
1206,932
1208,932
1210,932
1213,932
1215,932
1217,932
1219,932
1221,932
1223,932
1225,932
1227,932
1229,932
1231,932
1233,932
1235,932
1237,932
1239,931
1241,931
1243,932
1245,932
1247,931
1249,931
1251,932
1253,932
1255,931
1257,932
1259,931
1261,932
1263,931
1265,932
1267,932
1269,931
1271,932
1273,932
1275,932
1277,932
1279,931
1281,932
1283,932
1285,931
1287,931
1289,931
1291,931
1293,932
1295,931
1298,931
1300,931
1302,931
1304,931
1306,931
1308,931
1310,931
1312,931
1314,931
1316,931
1318,931
1320,931
1322,931
1324,931
1326,931
1328,931
1330,931
1332,931
1334,931
1336,931
1338,931
1341,931
1343,931
1345,931
1347,931
1349,931
1351,931
1353,931
1355,931
1357,931
1359,931
1361,931
1363,921
1365,886
1367,870
1369,864
1371,882
1373,850
1375,847
1377,861
1379,847
1381,841
1383,838
1385,835
1387,804
1389,769
1391,735
1393,706
1395,680
1397,664
1399,642
1401,749
1403,737
1405,725
1407,743
1409,745
1411,806
1413,823
1415,792
1417,760
1419,728
1421,696
1423,699
1426,729
1428,724
1430,752
1432,761
1434,803
1436,930
1438,931
1440,931
1442,931
1444,931
1446,931
1448,930
1450,907
1452,893
1454,856
1456,830
1458,868
1460,866
1462,900
1464,919
1466,882
1469,846
1471,811
1473,778
1475,751
1477,744
1479,722
1481,805
1483,846
1485,909
1487,931
1489,931
1491,931
1493,930
1495,931
1497,931
1499,927
1501,924
1503,930
1505,931
1507,931
1509,931
1511,931
1513,931
1515,930
1517,900
1519,897
1521,896
1523,868
1525,858
1527,842
1529,868
1531,931
1533,931
1535,931
1537,931
1539,931
1541,931
1543,931
1545,931
1547,931
1549,931
1551,931
1554,931
1556,931
1558,931
1560,931
1562,931
1564,916
1566,879
1568,842
1570,807
1572,832
1574,840
1576,834
1578,831
1580,829
1582,808
1584,803
1586,819
1588,813
1590,836
1592,830
1594,857
1597,890
1599,871
1601,852
1603,873
1605,855
1607,869
1609,885
1611,931
1613,924
1615,931
1617,931
1619,931
1621,931
1623,931
1625,931
1627,931
1629,931
1631,931
1633,931
1635,931
1637,931
1639,931
1641,931
1643,931
1645,931
1647,931
1649,918
1651,880
1653,885
1655,924
1657,908
1659,930
1661,904
1663,867
1665,841
1667,841
1669,824
1671,803
1673,783
1675,780
1677,773
1679,808
1682,811
1684,808
1686,835
1688,863
1690,847
1692,827
1694,798
1696,830
1698,850
1700,845
1702,912
1704,895
1706,863
1708,842
1710,834
1712,811
1714,788
1716,765
1718,811
1720,865
1722,856
1725,910
1727,929
1729,891
1731,856
1733,825
1735,830
1737,847
1739,827
1741,829
1743,818
1745,821
1747,871
1749,862
1751,901
1753,931
1755,917
1757,923
1759,931
1761,931
1763,931
1765,931
1767,931
1769,931
1771,931
1773,931
1775,931
1777,931
1779,931
1781,931
1783,931
1785,931
1787,931
1789,917
1791,880
1793,846
1795,817
1797,805
1799,800
1801,793
1803,784
1805,751
1807,732
1810,729
1812,718
1814,691
1816,669
1818,644
1820,633
1822,657
1824,743
1826,754
1828,805
1830,821
1832,876
1834,877
1836,931
1838,931
1840,931
1842,931
1844,931
1846,931
1848,931
1850,902
1853,866
1855,838
1857,815
1859,793
1861,775
1863,765
1865,746
1867,715
1869,686
1871,656
1873,633
1875,612
1877,598
1879,632
1881,643
1883,625
1885,599
1887,581
1889,597
1891,638
1893,641
1895,630
1897,622
1899,607
1901,590
1903,610
1905,658
1907,653
1909,672
1911,718
1913,714
1915,700
1917,688
1919,676
1921,654
1923,635
1925,622
1927,601
1929,575
1931,550
1933,527
1935,506
1938,487
1940,469
1942,468
1944,485
1946,494
1948,476
1950,466
1952,505
1954,519
1956,558
1958,626
1960,618
1962,592
1964,566
1966,550
1968,545
1970,533
1972,552
1974,569
1976,561
1978,594
1981,598
1983,586
1985,574
1987,551
1989,534
1991,518
1993,504
1995,490
1997,476
1999,461
2001,445
2003,431
2005,417
2007,399
2009,381
2011,365
2013,350
2015,342
2017,343
2019,341
2021,331
2023,325
2025,315
2027,337
2029,383
2031,389
2033,426
2035,492
2037,529
2039,524
2041,514
2043,499
2045,484
2047,505
2049,531
2051,525
2053,519
2055,574
2057,625
2059,657
2061,801
2063,864
2066,830
2068,792
2070,759
2072,736
2074,717
2076,699
2078,679
2080,658
2082,637
2084,615
2086,592
2088,570
2090,549
2092,527
2094,505
2096,483
2098,462
2100,442
2102,423
2104,406
2106,388
2109,372
2111,357
2113,346
2115,333
2117,319
2119,306
2121,292
2123,283
2125,273
2127,272
2129,274
2131,273
2133,265
2135,272
2137,290
2139,295
2141,287
2143,279
2145,267
2147,271
2149,266
2151,263
2153,264
2155,263
2157,257
2159,247
2161,240
2163,235
2165,233
2167,231
2169,223
2171,223
2173,220
2175,210
2177,208
2179,214
2181,218
2183,214
2185,229
2187,233
2189,223
2191,218
2194,209
2196,205
2198,206
2200,205
2202,199
2204,191
2206,188
2208,184
2210,181
2212,175
2214,167
2216,161
2218,155
2220,149
2222,144
2224,143
2226,145
2228,142
2230,143
2232,155
2234,161
2237,157
2239,157
2241,153
2243,151
2245,145
2247,144
2249,142
2251,136
2253,131
2255,212
2257,222
2259,230
2261,230
2263,229
2265,227
2267,219
2269,214
2271,211
2273,205
2275,197
2277,189
2279,185
2281,177
2283,170
2285,163
2287,157
2289,153
2291,151
2293,149
2295,147
2297,143
2299,138
2301,133
2303,130
2305,126
2307,123
2309,120
2311,115
2313,111
2315,114
2317,117
2319,117
2322,113
2324,113
2326,125
2328,127
2330,139
2332,134
2334,131
2336,129
2338,126
2340,123
2342,121
2344,118
2346,118
2348,118
2350,115
2352,112
2354,109
2356,106
2358,104
2360,104
2362,103
2365,100
2367,107
2369,113
2371,114
2373,117
2375,123
2377,122
2379,123
2381,121
2383,121
2385,120
2387,118
2389,116
2391,117
2393,123
2395,122
2397,120
2399,123
2401,131
2403,131
2405,135
2407,132
2409,127
2411,125
2413,123
2415,119
2417,116
2419,129
2421,140
2423,146
2425,154
2427,151
2429,155
2431,157
2433,155
2435,151
2437,146
2439,148
2441,162
2443,159
2445,161
2447,164
2450,161
2452,157
2454,156
2456,152
2458,150
2460,154
2462,153
2464,159
2466,160
2468,158
2470,155
2472,149
2474,144
2476,141
2478,149
2480,154
2482,151
2484,153
2486,157
2488,159
2490,163
2493,168
2495,163
2497,164
2499,170
2501,178
2503,191
2505,191
2507,197
2509,200
2511,206
2513,211
2515,202
2517,197
2519,190
2521,189
2523,187
2525,191
2527,187
2529,180
2531,177
2533,175
2535,173
2537,166
2539,159
2541,155
2543,153
2545,153
2547,155
2549,153
2551,148
2553,142
2555,139
2557,141
2559,151
2561,159
2563,157
2565,161
2567,164
2569,161
2571,158
2573,160
2575,170
2578,168
2580,170
2582,169
2584,174
2586,199
2588,248
2590,274
2592,293
2594,358
2596,399
2598,398
2600,394
2602,390
2604,380
2606,385
2608,381
2610,365
2612,363
2614,391
2616,448
2618,480
2621,479
2623,524
2625,614
2627,931
2629,931
2631,931
2633,931
2635,931
2637,932
2639,931
2641,931
2643,931
2645,931
2647,931
2649,931
2651,931
2653,931
2655,931
2657,931
2659,931
2661,931
2663,931
2665,931
2667,931
2669,931
2671,931
2673,931
2675,931
2677,931
2679,931
2681,931
2683,931
2685,931
2687,931
2689,931
2691,931
2693,931
2695,931
2697,931
2699,931
2701,911
2703,882
2706,888
2708,926
2710,931
2712,931
2714,931
2716,931
2718,931
2720,931
2722,931
2724,931
2726,931
2728,931
2730,931
2732,931
2734,931
2736,931
2738,931
2740,931
2742,931
2744,931
2746,931
2749,930
2751,923
2753,890
2755,882
2757,871
2759,926
2761,931
2763,931
2765,931
2767,931
2769,931
2771,931
2773,931
2775,931
2777,931
2779,931
2781,931
2783,931
2785,931
2787,931
2789,931
2791,931
2793,931
2795,931
2797,931
2799,931
2801,931
2803,931
2805,931
2807,931
2809,931
2811,931
2813,931
2815,931
2817,931
2819,931
2821,931
2823,931
2825,931
2827,931
2829,931
2831,931
2834,931
2836,931
2838,931
2840,931
2842,931
2844,931
2846,931
2848,931
2850,931
2852,931
2854,931
2856,931
2858,931
2860,931
2862,932
2864,931
2866,932
2868,931
2870,932
2872,932
2874,931
2877,932
2879,932
2881,932
2883,931
2885,932
2887,932
2889,931
2891,931
2893,932
2895,932
2897,932
2899,932
2901,932
2903,931
2905,931
2907,932
2909,932
2911,932
2913,931
2915,932
2917,932
2919,932
2921,932
2923,931
2925,932
2927,932
2929,931
2931,932
2933,932
2935,931
2937,931
2939,932
2941,932
2943,931
2945,931
2947,931
2949,931
2951,931
2953,931
2955,931
2957,931
2959,931
2962,931
2964,931
2966,932
2968,932
2970,931
2972,931
2974,931
2976,931
2978,931
2980,931
2982,931
2984,931
2986,931
2988,932
2990,931
2992,931
2994,931
2996,931
2998,931
3000,931
3002,931
3005,932
3007,931
3009,932
3011,931
3013,931
3015,931
3017,931
3019,931
3021,931
3023,931
3025,931
3027,931
3029,931
3031,931
3033,932
3035,932
3037,932
3039,931
3041,931
3043,932
3045,932
3047,931
3049,931
3051,931
3053,931
3055,932
3057,932
3059,932
3061,932
3063,931
3065,931
3067,931
3069,932
3071,931
3073,932
3075,932
3077,932
3079,932
3081,931
3083,932
3085,932
3087,931
3090,932
3092,931
3094,932
3096,931
3098,932
3100,932
3102,932
3104,931
3106,932
3108,931
3110,932
3112,932
3114,932
3116,932
3118,932
3120,931
3122,932
3124,932
3126,932
3128,932
3130,932
3133,932
3135,932
3137,932
3139,932
3141,932
3143,932
3145,932
3147,932
3149,932
3151,932
3153,932
3155,932
3157,932
3159,932
3161,931
3163,932
3165,932
3167,932
3169,932
3171,932
3173,932
3175,932
3177,932
3179,932
3181,932
3183,932
3185,932
3187,932
3189,932
3191,932
3193,932
3195,932
3197,932
3199,931
3201,931
3203,932
3205,932
3207,932
3209,932
3211,931
3213,932
3215,932
3218,932
3220,932
3222,932
3224,932
3226,931
3228,932
3230,932
3232,931
3234,932
3236,932
3238,932
3240,932
3242,932
3244,932
3246,932
3248,931
3250,932
3252,932
3254,932
3256,932
3258,931
3261,932
3263,932
3265,932
3267,932
3269,932
3271,932
3273,932
3275,932
3277,932
3279,932
3281,931
3283,932
3285,931
3287,932
3289,932
3291,932
3293,932
3295,931
3297,932
3299,932
3301,932
3303,931
3305,932
3307,931
3309,932
3311,931
3313,932
3315,931
3317,932
3319,931
3321,931
3323,932
3325,931
3327,932
3329,932
3331,931
3333,931
3335,932
3337,932
3339,931
3341,931
3343,931
3346,931
3348,931
3350,931
3352,931
3354,931
3356,931
3358,931
3360,931
3362,931
3364,931
3366,931
3368,931
3370,931
3372,931
3374,931
3376,931
3378,931
3380,931
3382,931
3384,932
3386,931
3389,931
3391,931
3393,931
3395,931
3397,931
3399,931
3401,931
3403,931
3405,931
3407,931
3409,931
3411,931
3413,931
3415,931
3417,931
3419,931
3421,931
3423,931
3425,931
3427,928
3429,895
3431,878
3433,841
3435,824
3437,810
3439,777
3441,762
3443,750
3445,727
3447,699
3449,708
3451,693
3453,712
3455,703
3457,695
3459,683
3461,672
3463,731
3465,779
3467,800
3469,834
3471,802
3474,781
3476,761
3478,740
3480,718
3482,709
3484,685
3486,670
3488,647
3490,648
3492,649
3494,647
3496,645
3498,617
3500,604
3502,607
3504,587
3506,620
3508,625
3510,686
3512,679
3514,673
3517,698
3519,682
3521,656
3523,628
3525,607
3527,593
3529,576
3531,550
3533,529
3535,513
3537,495
3539,481
3541,465
3543,469
3545,458
3547,439
3549,439
3551,447
3553,448
3555,462
3557,505
3559,588
3561,632
3563,739
3565,800
3567,768
3569,802
3571,853
3573,910
3575,931
3577,931
3579,931
3581,910
3583,904
3585,919
3587,904
3589,907
3591,879
3593,886
3595,868
3597,876
3599,873
3602,853
3604,822
3606,799
3608,779
3610,842
3612,895
3614,898
3616,926
3618,897
3620,870
3622,895
3624,910
3626,879
3628,847
3630,847
3632,892
3634,893
3636,931
3638,931
3640,930
3642,907
3645,872
3647,835
3649,798
3651,765
3653,735
3655,710
3657,723
3659,713
3661,705
3663,684
3665,705
3667,703
3669,739
3671,729
3673,741
3675,759
3677,746
3679,735
3681,745
3683,723
3685,700
3687,711
3689,724
3691,727
3693,794
3695,809
3697,782
3699,751
3701,721
3703,695
3705,686
3707,678
3709,652
3711,628
3713,625
3715,645
3717,630
3719,613
3721,604
3723,582
3725,570
3727,561
3730,544
3732,523
3734,532
3736,616
3738,652
3740,662
3742,727
3744,767
3746,776
3748,750
3750,721
3752,692
3754,667
3756,655
3758,728
3760,734
3762,775
3764,826
3766,832
3768,861
3770,929
3773,926
3775,931
3777,931
3779,931
3781,931
3783,931
3785,929
3787,893
3789,855
3791,818
3793,785
3795,776
3797,780
3799,756
3801,744
3803,725
3805,698
3807,671
3809,646
3811,633
3813,622
3815,613
3817,598
3819,635
3821,679
3823,679
3825,753
3827,808
3829,798
3831,777
3833,783
3835,779
3837,752
3839,749
3841,746
3843,828
3845,884
3847,898
3849,931
3851,931
3853,931
3855,931
3858,922
3860,897
3862,875
3864,861
3866,828
3868,794
3870,764
3872,737
3874,711
3876,705
3878,691
3880,667
3882,658
3884,641
3886,637
3888,736
3890,758
3892,791
3894,870
3896,866
3898,855
3901,825
3903,800
3905,814
3907,827
3909,800
3911,772
3913,746
3915,722
3917,698
3919,675
3921,653
3923,632
3925,613
3927,600
3929,592
3931,578
3933,567
3935,589
3937,625
3939,619
3941,677
3943,712
3945,743
3947,729
3949,741
3951,739
3953,717
3955,720
3957,700
3959,717
3961,771
3963,799
3965,785
3967,809
3969,858
3971,912
3973,930
3975,913
3977,873
3979,845
3981,826
3983,805
3986,781
3988,769
3990,757
3992,731
3994,709
3996,690
3998,660
4000,631
4002,602
4004,598
4006,657
4008,725
4010,721
4012,780
4014,856
4016,857
4018,824
4020,790
4022,757
4024,727
4026,711
4029,706
4031,693
4033,665
4035,649
4037,639
4039,654
4041,686
4043,695
4045,684
4047,721
4049,761
4051,767
4053,740
4055,708
4057,681
4059,658
4061,639
4063,628
4065,631
4067,632
4069,609
4071,603
4073,592
4075,582
4077,562
4079,550
4081,536
4083,518
4085,499
4087,493
4089,480
4091,473
4093,469
4095,455
4097,449
4099,438
4101,420
4103,402
4105,390
4107,395
4109,404
4111,392
4114,383
4116,381
4118,381
4120,367
4122,357
4124,370
4126,407
4128,407
4130,436
4132,482
4134,485
4136,464
4138,443
4140,426
4142,412
4144,398
4146,389
4148,389
4150,384
4152,370
4154,363
4157,359
4159,347
4161,337
4163,328
4165,318
4167,315
4169,305
4171,306
4173,305
4175,294
4177,289
4179,289
4181,286
4183,276
4185,265
4187,253
4189,243
4191,234
4193,224
4195,215
4197,206
4199,201
4201,192
4203,184
4205,177
4207,169
4209,162
4211,156
4213,149
4215,143
4217,138
4219,133
4221,128
4223,123
4225,118
4227,113
4229,109
4231,104
4233,100
4235,97
4237,93
4239,90
4242,86
4244,84
4246,83
4248,81
4250,78
4252,77
4254,74
4256,72
4258,70
4260,67
4262,66
4264,66
4266,63
4268,61
4270,59
4272,57
4274,55
4276,54
4278,52
4280,51
4282,49
4285,48
4287,48
4289,46
4291,45
4293,44
4295,42
4297,45
4299,46
4301,45
4303,45
4305,44
4307,43
4309,43
4311,42
4313,43
4315,44
4317,44
4319,49
4321,50
4323,49
4325,47
4327,47
4329,46
4331,44
4333,43
4335,42
4337,40
4339,41
4341,41
4343,42
4345,42
4347,43
4349,46
4351,48
4353,48
4355,49
4357,48
4359,51
4361,52
4363,54
4365,52
4367,52
4370,58
4372,60
4374,70
4376,70
4378,74
4380,72
4382,69
4384,67
4386,70
4388,69
4390,68
4392,66
4394,67
4396,66
4398,66
4400,183
4402,199
4404,211
4406,223
4408,228
4410,228
4413,225
4415,221
4417,214
4419,205
4421,198
4423,191
4425,185
4427,180
4429,174
4431,172
4433,168
4435,162
4437,157
4439,155
4441,153
4443,147
4445,141
4447,138
4449,135
4451,132
4453,134
4455,131
4457,128
4459,126
4461,123
4463,121
4465,119
4467,119
4469,119
4471,116
4473,114
4475,112
4477,110
4479,113
4481,112
4483,112
4485,110
4487,108
4489,104
4491,114
4493,112
4495,108
4498,104
4500,101
4502,100
4504,98
4506,107
4508,112
4510,114
4512,112
4514,113
4516,116
4518,113
4520,111
4522,116
4524,120
4526,123
4528,126
4530,128
4532,125
4534,121
4536,120
4538,118
4541,117
4543,119
4545,119
4547,115
4549,112
4551,110
4553,108
4555,108
4557,103
4559,101
4561,97
4563,97
4565,99
4567,95
4569,95
4571,93
4573,92
4575,92
4577,91
4579,90
4581,89
4583,91
4585,92
4587,93
4589,94
4591,93
4593,90
4595,87
4597,89
4599,90
4601,98
4603,98
4605,99
4607,96
4609,92
4611,89
4613,85
4615,82
4617,80
4619,77
4621,74
4623,79
4626,100
4628,119
4630,121
4632,142
4634,161
4636,159
4638,157
4640,153
4642,150
4644,156
4646,160
4648,157
4650,155
4652,161
4654,167
4656,168
4658,176
4660,186
4662,183
4664,198
4666,216
4669,217
4671,244
4673,279
4675,283
4677,311
4679,340
4681,334
4683,330
4685,329
4687,319
4689,320
4691,315
4693,337
4695,394
4697,407
4699,445
4701,510
4703,523
4705,506
4707,497
4709,478
4711,468
4713,475
4715,535
4717,589
4719,588
4721,629
4723,694
4725,697
4727,676
4729,698
4731,716
4733,697
4735,719
4737,784
4739,842
4741,828
4743,854
4745,839
4747,840
4749,830
4751,814
4754,823
4756,840
4758,872
4760,868
4762,849
4764,846
4766,821
4768,816
4770,800
4772,865
4774,915
4776,904
4778,931
4780,931
4782,931
4784,931
4786,931
4788,931
4790,931
4792,932
4794,931
4797,932
4799,931
4801,931
4803,931
4805,931
4807,931
4809,931
4811,931
4813,931
4815,931
4817,931
4819,931
4821,931
4823,931
4825,931
4827,931
4829,931
4831,931
4833,931
4835,931
4837,931
4839,931
4841,931
4843,931
4845,931
4847,931
4849,931
4851,931
4853,931
4855,931
4857,931
4859,931
4861,931
4863,931
4865,931
4867,931
4869,931
4871,931
4873,931
4875,931
4877,931
4879,931
4882,931
4884,932
4886,931
4888,931
4890,931
4892,931
4894,931
4896,931
4898,932
4900,932
4902,931
4904,932
4906,932
4908,932
4910,932
4912,931
4914,931
4916,931
4918,931
4920,931
4922,931
4925,931
4927,931
4929,932
4931,932
4933,932
4935,931
4937,931
4939,932
4941,931
4943,932
4945,931
4947,932
4949,932
4951,932
4953,931
4955,932
4957,932
4959,932
4961,931
4963,932
4965,931
4967,931
4969,931
4971,932
4973,932
4975,932
4977,932
4979,931
4981,932
4983,932
4985,932
4987,932
4989,932
4991,932
4993,932
4995,931
4997,932
4999,932
5001,932
5003,931
5005,931
5007,931
5010,931
5012,932
5014,932
5016,932
5018,932
5020,931
5022,931
5024,932
5026,931
5028,932
5030,932
5032,932
5034,931
5036,932
5038,932
5040,931
5042,932
5044,932
5046,931
5048,932
5050,931
5053,932
5055,932
5057,931
5059,932
5061,932
5063,931
5065,932
5067,932
5069,932
5071,932
5073,931
5075,931
5077,932
5079,932
5081,931
5083,932
5085,932
5087,932
5089,932
5091,931
5093,932
5095,931
5097,932
5099,932
5101,931
5103,932
5105,932
5107,931
5109,932
5111,932
5113,931
5115,932
5117,932
5119,932
5121,932
5123,931
5125,931
5127,931
5129,932
5131,932
5133,932
5135,932
5138,931
5140,932
5142,931
5144,932
5146,932
5148,932
5150,932
5152,931
5154,931
5156,932
5158,931
5160,932
5162,932
5164,932
5166,931
5168,931
5170,932
5172,932
5174,932
5176,931
5178,931
5181,932
5183,932
5185,932
5187,932
5189,931
5191,932
5193,931
5195,931
5197,932
5199,932
5201,932
5203,931
5205,931
5207,932
5209,932
5211,932
5213,931
5215,932
5217,932
5219,931
5221,932
5223,931
5225,932
5227,932
5229,932
5231,932
5233,931
5235,932
5237,932
5239,932
5241,932
5243,931
5245,932
5247,932
5249,932
5251,931
5253,931
5255,932
5257,931
5259,931
5261,932
5263,931
5266,932
5268,932
5270,932
5272,931
5274,931
5276,932
5278,932
5280,932
5282,932
5284,931
5286,931
5288,932
5290,932
5292,932
5294,932
5296,932
5298,931
5300,932
5302,932
5304,932
5306,932
5309,932
5311,932
5313,932
5315,932
5317,932
5319,932
5321,932
5323,932
5325,932
5327,932
5329,932
5331,932
5333,932
5335,932
5337,932
5339,931
5341,931
5343,932
5345,931
5347,932
5349,932
5351,931
5353,931
5355,932
5357,932
5359,931
5361,932
5363,931
5365,932
5367,932
5369,932
5371,932
5373,932
5375,932
5377,932
5379,932
5381,931
5383,931
5385,932
5387,931
5389,932
5391,931
5394,931
5396,932
5398,931
5400,931
5402,931
5404,931
5406,932
5408,931
5410,931
5412,931
5414,931
5416,931
5418,931
5420,931
5422,931
5424,931
5426,931
5428,931
5430,931
5432,931
5434,931
5437,931
5439,931
5441,931
5443,931
5445,931
5447,931
5449,931
5451,931
5453,931
5455,931
5457,931
5459,931
5461,931
5463,931
5465,931
5467,931
5469,931
5471,931
5473,931
5475,931
5477,931
5479,931
5481,931
5483,931
5485,931
5487,931
5489,931
5491,931
5493,931
5495,931
5497,931
5499,931
5501,931
5503,931
5505,931
5507,931
5509,931
5511,931
5513,931
5515,931
5517,931
5519,931
5522,929
5524,889
5526,857
5528,821
5530,784
5532,753
5534,727
5536,699
5538,679
5540,654
5542,627
5544,609
5546,586
5548,568
5550,551
5552,529
5554,537
5556,557
5558,567
5560,570
5562,552
5565,565
5567,580
5569,644
5571,687
5573,669
5575,646
5577,672
5579,661
5581,652
5583,653
5585,650
5587,648
5589,625
5591,659
5593,781
5595,772
5597,761
5599,813
5601,855
5603,859
5605,828
5607,811
5609,780
5611,758
5613,753
5615,765
5617,747
5619,773
5621,776
5623,844
5625,853
5627,875
5629,856
5631,866
5633,868
5635,855
5637,864
5639,862
5641,893
5643,882
5645,909
5647,916
5650,888
5652,864
5654,836
5656,823
5658,807
5660,872
5662,931
5664,931
5666,931
5668,931
5670,931
5672,931
5674,931
5676,931
5678,931
5680,931
5682,931
5684,931
5686,931
5688,931
5690,931
5693,931
5695,931
5697,931
5699,931
5701,931
5703,931
5705,931
5707,931
5709,931
5711,931
5713,931
5715,931
5717,931
5719,931
5721,931
5723,931
5725,931
5727,931
5729,931
5731,931
5733,931
5735,931
5737,931
5739,931
5741,931
5743,931
5745,931
5747,931
5749,931
5751,931
5753,931
5755,931
5757,931
5759,931
5761,931
5763,931
5765,931
5767,931
5769,931
5771,931
5773,931
5775,931
5778,931
5780,931
5782,931
5784,931
5786,931
5788,931
5790,931
5792,931
5794,931
5796,931
5798,931
5800,931
5802,931
5804,931
5806,931
5808,931
5810,931
5812,931
5814,931
5816,931
5818,931
5821,931
5823,931
5825,931
5827,931
5829,931
5831,931
5833,931
5835,931
5837,931
5839,931
5841,931
5843,931
5845,931
5847,931
5849,931
5851,931
5853,931
5855,931
5857,931
5859,931
5861,931
5863,931
5865,931
5867,931
5869,931
5871,931
5873,931
5875,931
5877,931
5879,931
5881,931
5883,931
5885,931
5887,931
5889,931
5891,931
5893,931
5895,931
5897,931
5899,931
5901,931
5903,931
5906,924
5908,892
5910,860
5912,828
5914,797
5916,788
5918,780
5920,789
5922,800
5924,811
5926,801
5928,854
5930,907
5932,927
5934,909
5936,893
5938,861
5940,848
5942,830
5944,823
5946,792
5949,766
5951,751
5953,842
5955,903
5957,900
5959,931
5961,931
5963,931
5965,931
5967,931
5969,930
5971,894
5973,863
5975,835
5977,809
5979,785
5981,758
5983,728
5985,697
5987,680
5989,716
5991,734
5993,728
5995,711
5997,730
5999,721
6001,702
6003,681
6005,672
6007,646
6009,634
6011,648
6013,650
6015,629
6017,614
6019,601
6021,578
6023,559
6025,539
6027,515
6029,492
6031,474
6034,458
6036,442
6038,423
6040,405
6042,387
6044,374
6046,361
6048,362
6050,369
6052,362
6054,349
6056,372
6058,425
6060,430
6062,484
6064,551
6066,548
6068,533
6070,520
6072,517
6074,506
6077,498
6079,505
6081,500
6083,496
6085,519
6087,552
6089,557
6091,558
6093,611
6095,675
6097,677
6099,649
6101,621
6103,601
6105,586
6107,574
6109,563
6111,551
6113,537
6115,523
6117,503
6119,492
6121,472
6123,455
6125,444
6127,480
6129,521
6131,534
6133,522
6135,549
6137,603
6139,630
6141,616
6143,600
6145,586
6147,569
6149,573
6151,576
6153,558
6155,548
6157,543
6159,527
6162,505
6164,483
6166,464
6168,447
6170,430
6172,616
6174,628
6176,633
6178,630
6180,620
6182,605
6184,586
6186,564
6188,552
6190,551
6192,538
6194,536
6196,554
6198,556
6200,543
6202,523
6205,499
6207,480
6209,487
6211,509
6213,509
6215,511
6217,536
6219,532
6221,510
6223,491
6225,474
6227,459
6229,442
6231,424
6233,405
6235,388
6237,373
6239,362
6241,349
6243,335
6245,320
6247,313
6249,300
6251,287
6253,274
6255,263
6257,252
6259,241
6261,230
6263,221
6265,211
6267,202
6269,194
6271,186
6273,180
6275,172
6277,169
6279,167
6281,163
6283,157
6285,157
6287,160
6290,162
6292,163
6294,159
6296,154
6298,154
6300,150
6302,145
6304,144
6306,146
6308,144
6310,144
6312,142
6314,139
6316,134
6318,130
6320,134
6322,138
6324,136
6326,132
6328,128
6330,125
6333,121
6335,118
6337,114
6339,110
6341,105
6343,101
6345,100
6347,98
6349,95
6351,92
6353,89
6355,87
6357,88
6359,84
6361,82
6363,79
6365,79
6367,78
6369,76
6371,73
6373,72
6375,71
6377,68
6379,252
6381,281
6383,302
6385,314
6387,320
6389,322
6391,322
6393,317
6395,308
6397,296
6399,286
6401,276
6403,265
6405,253
6407,243
6409,235
6411,230
6413,223
6415,215
6418,208
6420,200
6422,196
6424,189
6426,184
6428,179
6430,174
6432,168
6434,161
6436,159
6438,160
6440,159
6442,155
6444,157
6446,150
6448,147
6450,146
6452,143
6454,138
6456,135
6458,131
6461,126
6463,122
6465,117
6467,113
6469,109
6471,105
6473,101
6475,97
6477,94
6479,93
6481,89
6483,86
6485,82
6487,79
6489,80
6491,83
6493,84
6495,86
6497,88
6499,86
6501,85
6503,85
6505,84
6507,84
6509,82
6511,83
6513,80
6515,81
6517,80
6519,80
6521,81
6523,85
6525,82
6527,81
6529,79
6531,78
6533,79
6535,83
6537,93
6539,92
6541,91
6543,90
6546,87
6548,86
6550,85
6552,89
6554,90
6556,92
6558,111
6560,114
6562,119
6564,118
6566,119
6568,115
6570,113
6572,112
6574,116
6576,119
6578,129
6580,130
6582,124
6584,121
6586,122
6589,120
6591,117
6593,113
6595,113
6597,109
6599,106
6601,108
6603,105
6605,110
6607,118
6609,116
6611,114
6613,114
6615,117
6617,114
6619,112
6621,109
6623,109
6625,109
6627,106
6629,103
6631,105
6633,111
6635,109
6637,107
6639,103
6641,99
6643,98
6645,94
6647,91
6649,90
6651,87
6653,91
6655,104
6657,118
6659,125
6661,126
6663,146
6665,170
6667,175
6669,172
6671,167
6674,165
6676,160
6678,153
6680,147
6682,150
6684,165
6686,196
6688,218
6690,221
6692,217
6694,238
6696,265
6698,262
6700,268
6702,264
6704,280
6706,306
6708,304
6710,311
6712,306
6714,310
6717,338
6719,369
6721,391
6723,544
6725,585
6727,678
6729,757
6731,761
6733,735
6735,716
6737,698
6739,671
6741,651
6743,628
6745,621
6747,614
6749,595
6751,579
6753,573
6755,566
6757,562
6759,553
6761,534
6763,528
6765,513
6767,526
6769,543
6771,527
6773,515
6775,502
6777,511
6779,555
6781,590
6783,581
6785,613
6787,612
6789,630
6791,627
6793,629
6795,669
6797,687
6799,665
6802,663
6804,667
6806,654
6808,681
6810,676
6812,707
6814,768
6816,781
6818,764
6820,931
6822,931
6824,931
6826,931
6828,931
6830,931
6832,931
6834,931
6836,931
6838,931
6840,931
6842,931
6845,931
6847,931
6849,931
6851,931
6853,931
6855,931
6857,931
6859,931
6861,931
6863,931
6865,931
6867,931
6869,931
6871,931
6873,931
6875,931
6877,931
6879,931
6881,931
6883,931
6885,931
6887,931
6889,931
6891,931
6893,931
6895,931
6897,931
6899,931
6901,931
6903,931
6905,931
6907,931
6909,931
6911,931
6913,931
6915,931
6917,931
6919,931
6921,931
6923,931
6925,931
6927,931
6930,931
6932,931
6934,931
6936,931
6938,931
6940,931
6942,931
6944,931
6946,931
6948,931
6950,931
6952,931
6954,931
6956,931
6958,931
6960,931
6962,931
6964,931
6966,931
6968,931
6970,931
6973,931
6975,931
6977,931
6979,931
6981,931
6983,931
6985,931
6987,931
6989,932
6991,931
6993,932
6995,931
6997,931
6999,931
7001,931
7003,932
7005,931
7007,931
7009,931
7011,931
7013,931
7015,931
7017,931
7019,931
7021,931
7023,931
7025,931
7027,931
7029,932
7031,932
7033,932
7035,931
7037,932
7039,931
7041,931
7043,931
7045,931
7047,932
7049,932
7051,932
7053,932
7055,931
7058,932
7060,931
7062,932
7064,932
7066,932
7068,932
7070,932
7072,931
7074,932
7076,932
7078,932
7080,932
7082,932
7084,932
7086,932
7088,932
7090,932
7092,932
7094,932
7096,932
7098,932
7101,932
7103,932
7105,931
7107,931
7109,932
7111,932
7113,932
7115,931
7117,932
7119,932
7121,932
7123,932
7125,932
7127,931
7129,931
7131,932
7133,932
7135,932
7137,931
7139,932
7141,931
7143,931
7145,932
7147,931
7149,932
7151,932
7153,932
7155,932
7157,932
7159,932
7161,932
7163,931
7165,931
7167,932
7169,932
7171,932
7173,932
7175,932
7177,932
7179,932
7181,932
7183,932
7186,932
7188,932
7190,932
7192,932
7194,932
7196,931
7198,932
7200,932
7202,932
7204,932
7206,931
7208,932
7210,932
7212,932
7214,932
7216,932
7218,932
7220,931
7222,932
7224,932
7226,931
7229,932
7231,932
7233,932
7235,932
7237,932
7239,932
7241,932
7243,932
7245,932
7247,932
7249,932
7251,931
7253,932
7255,931
7257,932
7259,932
7261,932
7263,931
7265,931
7267,932
7269,932
7271,931
7273,932
7275,932
7277,932
7279,931
7281,932
7283,932
7285,932
7287,931
7289,932
7291,932
7293,932
7295,932
7297,932
7299,932
7301,932
7303,932
7305,931
7307,932
7309,932
7311,932
7314,932
7316,931
7318,931
7320,932
7322,931
7324,931
7326,931
7328,932
7330,932
7332,932
7334,931
7336,931
7338,932
7340,931
7342,932
7344,931
7346,931
7348,932
7350,932
7352,932
7354,932
7357,932
7359,932
7361,931
7363,931
7365,932
7367,931
7369,932
7371,932
7373,931
7375,931
7377,932
7379,932
7381,932
7383,932
7385,931
7387,932
7389,932
7391,931
7393,932
7395,931
7397,932
7399,931
7401,931
7403,932
7405,931
7407,932
7409,931
7411,932
7413,931
7415,931
7417,931
7419,931
7421,931
7423,931
7425,931
7427,931
7429,931
7431,931
7433,931
7435,931
7437,931
7439,931
7442,931
7444,931
7446,931
7448,931
7450,931
7452,931
7454,931
7456,931
7458,931
7460,931
7462,931
7464,931
7466,931
7468,931
7470,931
7472,931
7474,931
7476,931
7478,931
7480,931
7482,931
7485,931
7487,931
7489,931
7491,931
7493,931
7495,931
7497,931
7499,931
7501,930
7503,931
7505,931
7507,931
7509,931
7511,931
7513,930
7515,908
7517,866
7519,830
7521,795
7523,759
7525,727
7527,710
7529,681
7531,653
7533,626
7535,613
7537,593
7539,592
7541,580
7543,570
7545,631
7547,630
7549,639
7551,616
7553,657
7555,711
7557,698
7559,679
7561,650
7563,631
7565,604
7567,580
7570,558
7572,553
7574,547
7576,534
7578,512
7580,492
7582,472
7584,457
7586,449
7588,440
7590,432
7592,420
7594,421
7596,429
7598,441
7600,443
7602,434
7604,461
7606,478
7608,473
7610,480
7613,468
7615,462
7617,463
7619,487
7621,579
7623,635
7625,744
7627,822
7629,826
7631,796
7633,762
7635,735
7637,708
7639,679
7641,648
7643,627
7645,605
7647,583
7649,575
7651,559
7653,550
7655,545
7657,522
7659,505
7661,546
7663,589
7665,638
7667,704
7669,684
7671,663
7673,637
7675,623
7677,671
7679,684
7681,660
7683,648
7685,682
7687,797
7689,779
7691,796
7693,789
7695,791
7698,818
7700,815
7702,806
7704,772
7706,740
7708,711
7710,681
7712,653
7714,629
7716,609
7718,704
7720,708
7722,737
7724,784
7726,844
7728,931
7730,931
7732,931
7734,923
7736,904
7738,904
7741,879
7743,859
7745,835
7747,804
7749,777
7751,750
7753,732
7755,718
7757,707
7759,714
7761,727
7763,711
7765,690
7767,692
7769,688
7771,676
7773,672
7775,652
7777,657
7779,674
7781,665
7783,668
7785,693
7787,678
7789,649
7791,624
7793,615
7795,614
7797,592
7799,576
7801,558
7803,644
7805,702
7807,722
7809,834
7811,878
7813,865
7815,931
7817,931
7819,931
7821,931
7823,931
7826,931
7828,931
7830,931
7832,931
7834,931
7836,931
7838,931
7840,931
7842,931
7844,931
7846,927
7848,912
7850,879
7852,853
7854,842
7856,824
7858,795
7860,770
7862,777
7864,756
7866,740
7869,717
7871,713
7873,718
7875,802
7877,817
7879,895
7881,931
7883,931
7885,931
7887,931
7889,931
7891,931
7893,931
7895,931
7897,931
7899,931
7901,931
7903,931
7905,931
7907,931
7909,931
7911,931
7913,930
7915,898
7917,867
7919,847
7921,815
7923,796
7925,768
7927,738
7929,718
7931,690
7933,675
7935,687
7937,726
7939,719
7941,757
7943,789
7945,764
7947,745
7949,720
7951,700
7954,676
7956,651
7958,647
7960,638
7962,617
7964,594
7966,583
7968,576
7970,555
7972,538
7974,525
7976,557
7978,618
7980,620
7982,658
7984,720
7986,738
7988,718
7990,686
7992,657
7994,631
7997,664
7999,734
8001,733
8003,768
8005,827
8007,821
8009,787
8011,757
8013,724
8015,695
8017,676
8019,672
8021,682
8023,666
8025,652
8027,652
8029,633
8031,608
8033,591
8035,597
8037,598
8039,594
8041,572
8043,550
8045,531
8047,540
8049,546
8051,543
8053,530
8055,507
8057,485
8059,464
8061,453
8063,453
8065,464
8067,476
8069,462
8071,453
8073,444
8075,439
8077,445
8079,454
8082,440
8084,447
8086,475
8088,490
8090,480
8092,490
8094,509
8096,521
8098,510
8100,489
8102,476
8104,460
8106,440
8108,424
8110,410
8112,398
8114,412
8116,424
8118,413
8120,426
8122,434
8125,419
8127,406
8129,399
8131,400
8133,396
8135,386
8137,397
8139,420
8141,442
8143,435
8145,444
8147,492
8149,524
8151,533
8153,540
8155,534
8157,513
8159,493
8161,478
8163,466
8165,466
8167,468
8169,465
8171,448
8173,435
8175,418
8177,401
8179,384
8181,368
8183,354
8185,339
8187,324
8189,310
8191,296
8193,302
8195,338
8197,381
8199,382
8201,422
8203,474
8205,489
8207,475
8210,458
8212,437
8214,418
8216,402
8218,390
8220,378
8222,366
8224,357
8226,359
8228,355
8230,346
8232,350
8234,350
8236,338
8238,326
8240,315
8242,305
8244,296
8246,285
8248,275
8250,267
8253,258
8255,247
8257,239
8259,230
8261,222
8263,213
8265,204
8267,356
8269,368
8271,382
8273,388
8275,389
8277,385
8279,378
8281,370
8283,360
8285,350
8287,338
8289,327
8291,315
8293,304
8295,298
8297,286
8299,275
8301,266
8303,256
8305,246
8307,236
8309,226
8311,217
8313,210
8315,202
8317,194
8319,186
8321,178
8323,171
8325,164
8327,158
8329,152
8331,146
8333,141
8335,136
8338,133
8340,128
8342,123
8344,123
8346,119
8348,123
8350,124
8352,122
8354,117
8356,113
8358,109
8360,106
8362,103
8364,103
8366,101
8368,102
8370,100
8372,97
8374,97
8376,95
8378,96
8381,97
8383,94
8385,93
8387,292
8389,324
8391,344
8393,371
8395,372
8397,360
8399,354
8401,347
8403,335
8405,323
8407,310
8409,297
8411,286
8413,290
8415,284
8417,274
8419,270
8421,263
8423,258
8425,249
8427,243
8429,250
8431,242
8433,232
8435,224
8437,225
8439,218
8441,212
8443,204
8445,198
8447,197
8449,199
8451,197
8453,261
8455,292
8457,295
8459,297
8461,295
8463,287
8466,287
8468,276
8470,266
8472,257
8474,253
8476,251
8478,243
8480,236
8482,231
8484,229
8486,244
8488,237
8490,230
8492,232
8494,223
8496,217
8498,219
8500,223
8502,221
8504,214
8506,214
8509,210
8511,223
8513,216
8515,213
8517,213
8519,210
8521,233
8523,227
8525,228
8527,237
8529,230
8531,228
8533,227
8535,219
8537,222
8539,217
8541,211
8543,206
8545,202
8547,203
8549,209
8551,211
8553,208
8555,240
8557,246
8559,254
8561,247
8563,241
8565,234
8567,235
8569,232
8571,232
8573,224
8575,225
8577,237
8579,231
8581,223
8583,213
8585,205
8587,197
8589,189
8591,183
8594,175
8596,168
8598,161
8600,156
8602,150
8604,154
8606,149
8608,148
8610,145
8612,141
8614,138
8616,132
8618,129
8620,128
8622,126
8624,124
8626,124
8628,127
8630,131
8632,133
8634,131
8637,126
8639,125
8641,125
8643,121
8645,124
8647,125
8649,121
8651,120
8653,124
8655,124
8657,120
8659,116
8661,115
8663,124
8665,131
8667,132
8669,149
8671,165
8673,173
8675,169
8677,182
8679,193
8681,209
8683,205
8685,207
8687,218
8689,274
8691,308
8693,340
8695,438
8697,490
8699,479
8701,474
8703,485
8705,499
8707,492
8709,476
8711,485
8713,538
8715,574
8717,584
8719,679
8722,749
8724,740
8726,710
8728,684
8730,666
8732,649
8734,630
8736,609
8738,583
8740,561
8742,554
8744,569
8746,659
8748,771
8750,807
8752,845
8754,931
8756,931
8758,931
8760,931
8762,931
8765,931
8767,931
8769,931
8771,931
8773,931
8775,931
8777,931
8779,931
8781,931
8783,931
8785,931
8787,931
8789,931
8791,931
8793,931
8795,931
8797,931
8799,931
8801,931
8803,931
8805,931
8807,931
8809,931
8811,931
8813,931
8815,931
8817,931
8819,931
8821,931
8823,931
8825,931
8827,931
8829,931
8831,931
8833,931
8835,931
8837,931
8839,931
8841,931
8843,932
8845,931
8847,931
8850,931
8852,931
8854,931
8856,931
8858,931
8860,931
8862,931
8864,931
8866,931
8868,931
8870,931
8872,931
8874,931
8876,932
8878,931
8880,932
8882,931
8884,931
8886,932
8888,931
8890,932
8893,932
8895,931
8897,931
8899,931
8901,931
8903,932
8905,932
8907,932
8909,931
8911,931
8913,931
8915,931
8917,931
8919,931
8921,931
8923,931
8925,931
8927,931
8929,931
8931,931
8933,931
8935,931
8937,931
8939,931
8941,931
8943,931
8945,931
8947,931
8949,931
8951,931
8953,931
8955,931
8957,931
8959,931
8961,931
8963,931
8965,931
8967,931
8969,931
8971,931
8973,931
8975,931
8978,931
8980,931
8982,931
8984,931
8986,931
8988,931
8990,931
8992,931
8994,931
8996,932
8998,931
9000,931
9002,932
9004,931
9006,931
9008,931
9010,931
9012,931
9014,931
9016,932
9018,931
9021,931
9023,932
9025,931
9027,932
9029,932
9031,931
9033,931
9035,931
9037,931
9039,932
9041,932
9043,932
9045,932
9047,932
9049,932
9051,932
9053,932
9055,932
9057,932
9059,932
9061,932
9063,932
9065,932
9067,932
9069,932
9071,932
9073,932
9075,932
9077,931
9079,932
9081,932
9083,932
9085,932
9087,932
9089,932
9091,931
9093,932
9095,932
9097,932
9099,931
9101,932
9103,932
9106,932
9108,932
9110,931
9112,931
9114,932
9116,932
9118,932
9120,931
9122,932
9124,932
9126,931
9128,931
9130,932
9132,932
9134,932
9136,932
9138,932
9140,932
9142,932
9144,931
9146,931
9149,932
9151,932
9153,932
9155,932
9157,932
9159,932
9161,932
9163,932
9165,932
9167,932
9169,932
9171,932
9173,932
9175,932
9177,932
9179,931
9181,932
9183,932
9185,931
9187,931
9189,932
9191,931
9193,932
9195,932
9197,931
9199,931
9201,932
9203,932
9205,931
9207,932
9209,932
9211,931
9213,931
9215,932
9217,931
9219,931
9221,932
9223,931
9225,932
9227,932
9229,932
9231,931
9234,932
9236,932
9238,932
9240,932
9242,932
9244,932
9246,932
9248,932
9250,932
9252,932
9254,931
9256,932
9258,932
9260,932
9262,932
9264,932
9266,932
9268,932
9270,932
9272,932
9274,932
9277,932
9279,932
9281,931
9283,932
9285,932
9287,932
9289,932
9291,932
9293,932
9295,932
9297,932
9299,932
9301,932
9303,932
9305,932
9307,932
9309,932
9311,932
9313,932
9315,932
9317,932
9319,932
9321,931
9323,931
9325,932
9327,932
9329,932
9331,931
9333,932
9335,932
9337,931
9339,931
9341,932
9343,932
9345,932
9347,931
9349,931
9351,931
9353,931
9355,932
9357,931
9359,931
9362,931
9364,931
9366,932
9368,932
9370,932
9372,931
9374,931
9376,932
9378,931
9380,932
9382,932
9384,932
9386,931
9388,931
9390,931
9392,931
9394,931
9396,931
9398,931
9400,931
9402,931
9405,931
9407,931
9409,932
9411,931
9413,931
9415,931
9417,931
9419,931
9421,931
9423,931
9425,931
9427,931
9429,931
9431,931
9433,931
9435,931
9437,931
9439,931
9441,931
9443,931
9445,931
9447,931
9449,931
9451,931
9453,931
9455,931
9457,931
9459,931
9461,931
9463,931
9465,931
9467,931
9469,931
9471,931
9473,931
9475,931
9477,931
9479,931
9481,931
9483,925
9485,892
9487,864
9490,831
9492,797
9494,767
9496,739
9498,709
9500,679
9502,648
9504,620
9506,593
9508,566
9510,541
9512,517
9514,496
9516,475
9518,461
9520,441
9522,441
9524,481
9526,489
9528,541
9530,574
9533,554
9535,589
9537,584
9539,594
9541,589
9543,593
9545,594
9547,605
9549,591
9551,574
9553,588
9555,585
9557,606
9559,612
9561,597
9563,582
9565,565
9567,588
9569,621
9571,618
9573,682
9575,701
9577,686
9579,666
9581,646
9583,621
9585,618
9587,605
9589,597
9591,717
9593,698
9595,695
9597,696
9599,687
9601,672
9603,663
9605,639
9607,634
9609,674
9611,686
9613,768
9615,775
9618,791
9620,763
9622,738
9624,724
9626,733
9628,759
9630,740
9632,776
9634,786
9636,777
9638,779
9640,748
9642,730
9644,762
9646,747
9648,767
9650,780
9652,931
9654,931
9656,931
9658,931
9661,931
9663,931
9665,931
9667,931
9669,931
9671,931
9673,931
9675,931
9677,931
9679,931
9681,931
9683,930
9685,931
9687,931
9689,931
9691,931
9693,931
9695,931
9697,931
9699,931
9701,931
9703,931
9705,931
9707,931
9709,931
9711,931
9713,930
9715,931
9717,930
9719,931
9721,931
9723,931
9725,929
9727,902
9729,889
9731,862
9733,832
9735,797
9737,776
9739,785
9741,766
9743,777
9746,759
9748,751
9750,734
9752,829
9754,822
9756,790
9758,803
9760,804
9762,831
9764,899
9766,911
9768,895
9770,858
9772,849
9774,834
9776,807
9778,791
9780,773
9782,749
9784,755
9786,764
9789,763
9791,792
9793,778
9795,755
9797,727
9799,701
9801,673
9803,643
9805,686
9807,799
9809,809
9811,915
9813,931
9815,930
9817,925
9819,931
9821,931
9823,930
9825,931
9827,931
9829,931
9831,931
9833,930
9835,931
9837,931
9839,931
9841,931
9843,931
9845,931
9847,931
9849,931
9851,931
9853,931
9855,931
9857,931
9859,925
9861,890
9863,857
9865,846
9867,818
9869,798
9871,787
9874,762
9876,735
9878,710
9880,681
9882,701
9884,719
9886,709
9888,750
9890,766
9892,794
9894,815
9896,799
9898,804
9900,812
9902,820
9904,812
9906,788
9908,764
9910,733
9912,710
9914,692
9917,674
9919,670
9921,696
9923,685
9925,672
9927,677
9929,679
9931,671
9933,647
9935,619
9937,594
9939,574
9941,556
9943,540
9945,529
9947,516
9949,497
9951,499
9953,490
9955,480
9957,487
9959,479
9961,504
9963,519
9965,508
9967,513
9969,498
9971,481
9973,480
9975,485
9977,568
9979,624
9981,651
9983,783
9985,847
9987,812
9989,775
9991,741
9993,735
9995,755
9997,752
9999,735
10002,735
10004,714
10006,685
10008,661
10010,637
10012,614
10014,590
10016,566
10018,543
10020,520
10022,498
10024,476
10026,456
10028,444
10030,465
10032,534
10034,546
10036,564
10038,608
10040,622
10042,610
10045,650
10047,667
10049,675
10051,753
10053,786
10055,757
10057,730
10059,729
10061,781
10063,812
10065,804
10067,856
10069,880
10071,849
10073,815
10075,781
10077,749
10079,721
10081,695
10083,670
10085,655
10087,646
10089,621
10091,597
10093,576
10095,551
10097,530
10099,525
10101,536
10103,544
10105,529
10107,525
10109,540
10111,551
10113,539
10115,554
10117,589
10119,594
10121,595
10123,603
10125,608
10127,617
10130,621
10132,692
10134,725
10136,701
10138,673
10140,652
10142,630
10144,603
10146,583
10148,564
10150,547
10152,529
10154,512
10156,494
10158,477
10160,459
10162,441
10164,423
10166,405
10168,387
10170,370
10173,354
10175,338
10177,325
10179,313
10181,300
10183,291
10185,287
10187,280
10189,272
10191,277
10193,277
10195,272
10197,261
10199,256
10201,289
10203,330
10205,334
10207,367
10209,415
10211,423
10213,405
10215,397
10217,379
10219,370
10221,372
10223,365
10225,354
10227,355
10229,354
10231,341
10233,327
10235,316
10237,306
10239,296
10241,285
10243,274
10245,265
10247,254
10249,245
10251,236
10253,226
10255,216
10258,207
10260,198
10262,190
10264,182
10266,175
10268,168
10270,161
10272,155
10274,148
10276,143
10278,141
10280,136
10282,134
10284,134
10286,129
10288,124
10290,119
10292,115
10294,111
10296,107
10298,106
10301,104
10303,100
10305,97
10307,93
10309,90
10311,86
10313,83
10315,81
10317,78
10319,75
10321,72
10323,70
10325,68
10327,66
10329,64
10331,64
10333,62
10335,62
10337,60
10339,59
10341,58
10343,59
10345,57
10347,56
10349,55
10351,53
10353,51
10355,50
10357,49
10359,47
10361,46
10363,46
10365,45
10367,44
10369,42
10371,41
10373,40
10375,39
10377,38
10379,38
10381,40
10383,40
10386,43
10388,47
10390,46
10392,50
10394,53
10396,51
10398,51
10400,51
10402,50
10404,49
10406,47
10408,47
10410,47
10412,45
10414,46
10416,49
10418,53
10420,58
10422,56
10424,55
10426,61
10429,75
10431,75
10433,73
10435,72
10437,75
10439,75
10441,77
10443,78
10445,80
10447,79
10449,78
10451,75
10453,73
10455,72
10457,69
10459,239
10461,259
10463,277
10465,293
10467,303
10469,298
10471,292
10473,285
10475,292
10477,294
10479,289
10481,284
10483,274
10485,271
10487,263
10489,254
10491,249
10493,250
10495,248
10497,254
10499,245
10501,239
10503,232
10505,230
10507,227
10509,221
10511,217
10514,211
10516,203
10518,200
10520,194
10522,197
10524,194
10526,307
10528,306
10530,299
10532,312
10534,326
10536,329
10538,324
10540,316
10542,306
10544,297
10546,288
10548,283
10550,277
10552,265
10554,264
10557,253
10559,248
10561,251
10563,243
10565,235
10567,227
10569,223
10571,229
10573,242
10575,243
10577,268
10579,270
10581,267
10583,266
10585,259
10587,251
10589,247
10591,245
10593,250
10595,247
10597,242
10599,238
10601,231
10603,223
10605,222
10607,216
10609,208
10611,200
10613,194
10615,188
10617,183
10619,181
10621,181
10623,177
10625,171
10627,171
10629,175
10631,168
10633,164
10635,159
10637,154
10639,153
10642,151
10644,146
10646,141
10648,137
10650,141
10652,145
10654,142
10656,139
10658,138
10660,134
10662,128
10664,125
10666,123
10668,128
10670,135
10672,141
10674,147
10676,143
10678,140
10680,160
10682,205
10685,228
10687,247
10689,289
10691,293
10693,318
10695,341
10697,333
10699,340
10701,370
10703,403
10705,422
10707,412
10709,423
10711,423
10713,426
10715,455
10717,493
10719,504
10721,493
10723,534
10725,603
10727,629
10729,640
10731,626
10733,618
10735,621
10737,614
10739,644
10741,723
10743,770
10745,830
10747,931
10749,931
10751,931
10753,931
10755,931
10757,931
10759,931
10761,931
10763,931
10765,931
10767,931
10770,931
10772,931
10774,931
10776,931
10778,931
10780,931
10782,931
10784,931
10786,931
10788,931
10790,931
10792,931
10794,931
10796,932
10798,931
10800,931
10802,931
10804,931
10806,931
10808,931
10810,931
10813,931
10815,931
10817,931
10819,931
10821,931
10823,931
10825,931
10827,931
10829,931
10831,931
10833,931
10835,931
10837,931
10839,931
10841,931
10843,931
10845,931
10847,931
10849,931
10851,931
10853,932
10855,932
10857,932
10859,931
10861,931
10863,932
10865,931
10867,932
10869,932
10871,931
10873,931
10875,931
10877,931
10879,931
10881,932
10883,931
10885,931
10887,932
10889,931
10891,931
10893,931
10895,932
10898,932
10900,931
10902,931
10904,931
10906,931
10908,931
10910,931
10912,931
10914,931
10916,931
10918,931
10920,931
10922,931
10924,932
10926,931
10928,931
10930,931
10932,931
10934,931
10936,931
10938,931
10941,932
10943,931
10945,932
10947,931
10949,931
10951,932
10953,931
10955,931
10957,932
10959,932
10961,932
10963,932
10965,931
10967,932
10969,932
10971,931
10973,931
10975,931
10977,932
10979,932
10981,931
10983,932
10985,932
10987,932
10989,932
10991,932
10993,931
10995,932
10997,932
10999,931
11001,932
11003,932
11005,932
11007,932
11009,932
11011,931
11013,932
11015,932
11017,931
11019,932
11021,931
11023,932
11026,932
11028,932
11030,932
11032,931
11034,932
11036,932
11038,932
11040,931
11042,931
11044,931
11046,932
11048,932
11050,931
11052,931
11054,932
11056,932
11058,932
11060,932
11062,932
11064,932
11066,932
11069,932
11071,931
11073,932
11075,932
11077,932
11079,932
11081,931
11083,932
11085,932
11087,931
11089,932
11091,931
11093,932
11095,932
11097,932
11099,932
11101,932
11103,932
11105,931
11107,932
11109,932
11111,932
11113,932
11115,932
11117,932
11119,931
11121,931
11123,931
11125,932
11127,932
11129,932
11131,931
11133,932
11135,932
11137,932
11139,932
11141,932
11143,932
11145,932
11147,932
11149,931
11151,932
11154,932
11156,931
11158,932
11160,932
11162,932
11164,932
11166,932
11168,931
11170,931
11172,932
11174,932
11176,932
11178,932
11180,932
11182,932
11184,931
11186,932
11188,932
11190,932
11192,931
11194,932
11197,931
11199,931
11201,932
11203,932
11205,932
11207,931
11209,932
11211,932
11213,932
11215,932
11217,932
11219,932
11221,932
11223,931
11225,932
11227,931
11229,932
11231,932
11233,932
11235,932
11237,932
11239,932
11241,932
11243,932
11245,932
11247,932
11249,932
11251,931
11253,932
11255,932
11257,932
11259,932
11261,932
11263,932
11265,931
11267,931
11269,932
11271,932
11273,932
11275,931
11277,932
11279,932
11282,932
11284,931
11286,932
11288,932
11290,931
11292,931
11294,932
11296,932
11298,932
11300,932
11302,931
11304,932
11306,932
11308,931
11310,932
11312,932
11314,932
11316,932
11318,932
11320,932
11322,932
11325,932
11327,931
11329,932
11331,931
11333,932
11335,931
11337,932
11339,931
11341,932
11343,931
11345,932
11347,932
11349,931
11351,931
11353,932
11355,931
11357,931
11359,931
11361,932
11363,931
11365,932
11367,932
11369,932
11371,931
11373,932
11375,931
11377,932
11379,932
11381,931
11383,931
11385,931
11387,931
11389,931
11391,931
11393,931
11395,931
11397,931
11399,931
11401,931
11403,931
11405,931
11407,931
11410,931
11412,931
11414,931
11416,931
11418,931
11420,931
11422,931
11424,931
11426,931
11428,931
11430,931
11432,914
11434,877
11436,841
11438,818
11440,791
11442,774
11444,837
11446,850
11448,906
11450,920
11453,879
11455,850
11457,824
11459,794
11461,931
11463,931
11465,931
11467,931
11469,931
11471,930
11473,897
11475,861
11477,838
11479,931
11481,929
11483,892
11485,898
11487,887
11489,852
11491,829
11493,818
11495,860
11497,920
11499,931
11501,931
11503,931
11505,931
11507,931
11509,915
11511,904
11513,881
11515,851
11517,828
11519,793
11521,787
11523,777
11525,786
11527,807
11529,794
11531,774
11533,753
11535,789
11538,786
11540,803
11542,795
11544,783
11546,792
11548,786
11550,777
11552,759
11554,736
11556,713
11558,686
11560,665
11562,650
11564,627
11566,603
11568,582
11570,585
11572,567
11574,551
11576,559
11578,560
11581,605
11583,617
11585,642
11587,664
11589,665
11591,674
11593,713
11595,720
11597,711
11599,706
11601,682
11603,666
11605,652
11607,643
11609,625
11611,643
11613,629
11615,645
11617,633
11619,633
11621,782
11623,931
11625,931
11627,931
11629,931
11631,931
11633,931
11635,931
11637,931
11639,931
11641,931
11643,931
11645,931
11647,931
11649,931
11651,931
11653,931
11655,931
11657,931
11659,931
11661,931
11663,931
11666,931
11668,931
11670,930
11672,921
11674,906
11676,876
11678,846
11680,816
11682,812
11684,781
11686,748
11688,723
11690,748
11692,883
11694,905
11696,931
11698,931
11700,931
11702,931
11704,931
11706,931
11709,931
11711,930
11713,908
11715,904
11717,878
11719,849
11721,839
11723,824
11725,805
11727,799
11729,770
11731,755
11733,758
11735,754
11737,723
11739,696
11741,682
11743,674
11745,662
11747,633
11749,608
11751,613
11753,650
11755,640
11757,671
11759,681
11761,679
11763,724
11765,710
11767,705
11769,717
11771,712
11773,722
11775,758
11777,767
11779,748
11781,717
11783,715
11785,700
11787,694
11789,675
11791,652
11794,654
11796,656
11798,643
11800,628
11802,653
11804,653
11806,677
11808,710
11810,699
11812,684
11814,662
11816,641
11818,623
11820,605
11822,591
11824,583
11826,561
11828,545
11830,533
11832,521
11834,506
11837,511
11839,503
11841,551
11843,648
11845,667
11847,760
11849,874
11851,869
11853,864
11855,838
11857,826
11859,811
11861,779
11863,746
11865,722
11867,709
11869,711
11871,726
11873,702
11875,682
11877,680
11879,675
11881,655
11883,632
11885,635
11887,648
11889,629
11891,638
11893,653
11895,635
11897,608
11899,581
11901,555
11903,533
11905,511
11907,489
11909,468
11911,456
11913,445
11915,429
11917,439
11919,499
11922,509
11924,509
11926,531
11928,646
11930,668
11932,770
11934,827
11936,802
11938,818
11940,915
11942,931
11944,930
11946,920
11948,897
11950,879
11952,864
11954,856
11956,838
11958,805
11960,771
11962,739
11965,709
11967,697
11969,700
11971,689
11973,666
11975,654
11977,749
11979,759
11981,768
11983,754
11985,729
11987,703
11989,754
11991,848
11993,867
11995,865
11997,896
11999,893
12001,918
12003,931
12005,931
12007,931
12009,931
12011,931
12013,929
12015,907
12017,870
12019,833
12021,814
12023,800
12025,775
12027,742
12029,722
12031,705
12033,680
12035,655
12037,631
12039,607
12041,583
12043,561
12045,542
12047,523
12050,532
12052,608
12054,682
12056,683
12058,760
12060,831
12062,828
12064,827
12066,807
12068,806
12070,819
12072,813
12074,783
12076,757
12078,750
12080,791
12082,818
12084,799
12086,821
12088,839
12090,827
12093,813
12095,789
12097,754
12099,722
12101,696
12103,672
12105,649
12107,626
12109,604
12111,582
12113,559
12115,537
12117,514
12119,492
12121,471
12123,451
12125,431
12127,416
12129,416
12131,421
12133,428
12135,436
12137,443
12139,431
12141,448
12143,500
12145,535
12147,533
12149,513
12151,495
12153,479
12155,465
12157,454
12159,447
12161,438
12163,420
12165,407
12167,392
12169,375
12171,358
12173,344
12175,333
12178,321
12180,307
12182,295
12184,283
12186,271
12188,259
12190,248
12192,237
12194,227
12196,217
12198,208
12200,199
12202,191
12204,185
12206,179
12208,172
12210,165
12212,164
12214,172
12216,174
12218,175
12221,193
12223,206
12225,202
12227,196
12229,188
12231,180
12233,174
12235,171
12237,172
12239,167
12241,161
12243,161
12245,160
12247,154
12249,147
12251,141
12253,137
12255,132
12257,127
12259,123
12261,119
12263,116
12265,112
12267,108
12269,104
12271,101
12273,100
12275,98
12277,95
12279,92
12281,89
12283,90
12285,87
12287,85
12289,84
12291,81
12293,79
12295,76
12297,74
12299,72
12301,74
12303,76
12306,75
12308,75
12310,74
12312,73
12314,71
12316,69
12318,66
12320,65
12322,63
12324,61
12326,59
12328,58
12330,57
12332,57
12334,59
12336,59
12338,57
12340,56
12342,55
12344,55
12346,59
12349,61
12351,60
12353,62
12355,63
12357,63
12359,61
12361,65
12363,68
12365,72
12367,72
12369,73
12371,71
12373,73
12375,71
12377,69
12379,70
12381,71
12383,70
12385,67
12387,67
12389,67
12391,66
12393,68
12395,67
12397,65
12399,65
12401,65
12403,66
12405,66
12407,69
12409,69
12411,72
12413,80
12415,78
12417,79
12419,85
12421,85
12423,89
12425,86
12427,87
12429,87
12431,87
12434,87
12436,83
12438,85
12440,89
12442,90
12444,94
12446,94
12448,94
12450,96
12452,92
12454,89
12456,87
12458,86
12460,83
12462,81
12464,78
12466,78
12468,83
12470,88
12472,95
12474,111
12477,110
12479,110
12481,112
12483,113
12485,126
12487,126
12489,123
12491,121
12493,312
12495,331
12497,385
12499,405
12501,392
12503,379
12505,370
12507,368
12509,357
12511,348
12513,335
12515,328
12517,320
12519,317
12521,311
12523,300
12525,295
12527,284
12529,281
12531,272
12533,270
12535,263
12537,260
12539,254
12541,245
12543,243
12545,236
12547,228
12549,229
12551,233
12553,228
12555,226
12557,223
12559,223
12562,223
12564,214
12566,205
12568,196
12570,190
12572,184
12574,178
12576,174
12578,171
12580,165
12582,158
12584,156
12586,156
12588,154
12590,157
12592,151
12594,152
12596,148
12598,143
12600,139
12602,136
12605,135
12607,130
12609,128
12611,125
12613,121
12615,124
12617,123
12619,121
12621,120
12623,122
12625,121
12627,118
12629,114
12631,109
12633,106
12635,102
12637,104
12639,115
12641,129
12643,133
12645,138
12647,147
12649,163
12651,165
12653,159
12655,152
12657,153
12659,155
12661,150
12663,156
12665,162
12667,165
12669,192
12671,235
12673,260
12675,262
12677,303
12679,354
12681,372
12683,368
12685,372
12687,363
12690,349
12692,361
12694,436
12696,520
12698,531
12700,584
12702,652
12704,658
12706,654
12708,658
12710,646
12712,644
12714,644
12716,635
12718,613
12720,613
12722,643
12724,669
12726,654
12728,667
12730,741
12733,832
12735,847
12737,888
12739,931
12741,931
12743,931
12745,931
12747,930
12749,901
12751,865
12753,842
12755,838
12757,821
12759,886
12761,931
12763,931
12765,931
12767,931
12769,931
12771,931
12773,931
12775,931
12777,931
12779,931
12781,931
12783,931
12785,931
12787,931
12789,931
12791,931
12793,931
12795,931
12797,931
12799,931
12801,931
12803,931
12805,931
12807,931
12809,931
12811,931
12813,931
12815,931
12818,931
12820,931
12822,931
12824,931
12826,931
12828,931
12830,931
12832,931
12834,931
12836,931
12838,931
12840,931
12842,931
12844,931
12846,931
12848,931
12850,931
12852,931
12854,931
12856,931
12858,931
12861,931
12863,931
12865,932
12867,931
12869,931
12871,932
12873,931
12875,931
12877,931
12879,932
12881,932
12883,932
12885,932
12887,932
12889,931
12891,932
12893,932
12895,931
12897,932
12899,932
12901,931
12903,932
12905,932
12907,932
12909,932
12911,932
12913,931
12915,932
12917,931
12919,931
12921,931
12923,931
12925,931
12927,932
12929,932
12931,931
12933,932
12935,932
12937,931
12939,932
12941,932
12943,932
12946,932
12948,932
12950,932
12952,932
12954,932
12956,932
12958,932
12960,932
12962,932
12964,932
12966,932
12968,932
12970,932
12972,932
12974,932
12976,932
12978,931
12980,932
12982,932
12984,931
12986,932
12989,932
12991,932
12993,932
12995,932
12997,932
12999,932
13001,932
13003,931
13005,932
13007,931
13009,932
13011,931
13013,931
13015,932
13017,932
13019,932
13021,932
13023,932
13025,931
13027,932
13029,932
13031,932
13033,931
13035,931
13037,932
13039,932
13041,932
13043,931
13045,932
13047,931
13049,931
13051,932
13053,932
13055,932
13057,932
13059,932
13061,931
13063,932
13065,932
13067,932
13069,931
13071,932
13074,932
13076,931
13078,932
13080,932
13082,932
13084,931
13086,932
13088,931
13090,932
13092,932
13094,932
13096,932
13098,932
13100,932
13102,932
13104,932
13106,932
13108,931
13110,931
13112,932
13114,932
13117,932
13119,932
13121,932
13123,931
13125,931
13127,932
13129,931
13131,932
13133,931
13135,932
13137,932
13139,931
13141,931
13143,931
13145,931
13147,932
13149,931
13151,932
13153,931
13155,931
13157,931
13159,931
13161,932
13163,932
13165,932
13167,932
13169,932
13171,932
13173,931
13175,932
13177,932
13179,931
13181,932
13183,932
13185,932
13187,932
13189,932
13191,931
13193,932
13195,932
13197,931
13199,932
13202,932
13204,931
13206,932
13208,932
13210,932
13212,932
13214,932
13216,932
13218,932
13220,931
13222,931
13224,931
13226,932
13228,931
13230,932
13232,932
13234,931
13236,932
13238,931
13240,932
13242,931
13245,932
13247,932
13249,931
13251,932
13253,932
13255,932
13257,932
13259,932
13261,932
13263,932
13265,932
13267,932
13269,932
13271,932
13273,932
13275,932
13277,932
13279,932
13281,932
13283,932
13285,932
13287,932
13289,931
13291,932
13293,931
13295,931
13297,931
13299,932
13301,931
13303,932
13305,931
13307,932
13309,932
13311,931
13313,931
13315,931
13317,932
13319,931
13321,932
13323,931
13325,932
13327,931
13330,932
13332,931
13334,931
13336,931
13338,931
13340,931
13342,931
13344,931
13346,931
13348,931
13350,931
13352,931
13354,931
13356,931
13358,931
13360,931
13362,931
13364,931
13366,931
13368,931
13370,931
13373,931
13375,931
13377,931
13379,931
13381,932
13383,932
13385,932
13387,931
13389,931
13391,931
13393,931
13395,931
13397,931
13399,931
13401,931
13403,931
13405,931
13407,931
13409,931
13411,931
13413,931
13415,931
13417,931
13419,931
13421,931
13423,931
13425,931
13427,932
13429,931
13431,931
13433,931
13435,931
13437,931
13439,931
13441,931
13443,931
13445,931
13447,931
13449,931
13451,931
13453,931
13455,931
13458,931
13460,931
13462,931
13464,931
13466,931
13468,931
13470,931
13472,931
13474,931
13476,912
13478,889
13480,902
13482,888
13484,916
13486,891
13488,853
13490,822
13492,802
13494,776
13496,756
13498,741
13501,741
13503,743
13505,724
13507,696
13509,703
13511,700
13513,702
13515,675
13517,663
13519,657
13521,656
13523,639
13525,628
13527,618
13529,599
13531,574
13533,583
13535,619
13537,625
13539,657
13541,655
13543,644
13545,641
13547,678
13549,691
13551,737
13553,777
13555,769
13557,793
13559,816
13561,799
13563,815
13565,808
13567,776
13569,753
13571,730
13573,744
13575,726
13577,732
13579,720
13581,759
13583,746
13586,769
13588,761
13590,744
13592,745
13594,739
13596,796
13598,836
13600,835
13602,877
13604,881
13606,851
13608,820
13610,833
13612,832
13614,855
13616,880
13618,857
13620,849
13622,859
13624,863
13626,848
13629,864
13631,841
13633,930
13635,905
13637,926
13639,923
13641,931
13643,931
13645,931
13647,931
13649,931
13651,931
13653,931
13655,931
13657,931
13659,931
13661,931
13663,931
13665,931
13667,931
13669,931
13671,931
13673,931
13675,931
13677,931
13679,931
13681,931
13683,931
13685,931
13687,931
13689,931
13691,931
13693,931
13695,931
13697,931
13699,931
13701,931
13703,931
13705,931
13707,931
13709,931
13711,931
13714,931
13716,931
13718,931
13720,931
13722,931
13724,931
13726,931
13728,931
13730,931
13732,931
13734,931
13736,931
13738,931
13740,931
13742,931
13744,931
13746,931
13748,931
13750,931
13752,931
13754,931
13757,931
13759,931
13761,931
13763,931
13765,931
13767,931
13769,931
13771,931
13773,931
13775,915
13777,886
13779,857
13781,835
13783,836
13785,809
13787,808
13789,799
13791,875
13793,931
13795,931
13797,931
13799,931
13801,931
13803,931
13805,931
13807,931
13809,931
13811,931
13813,931
13815,931
13817,931
13819,931
13821,931
13823,931
13825,931
13827,931
13829,931
13831,931
13833,931
13835,931
13837,931
13839,931
13842,931
13844,931
13846,930
13848,918
13850,882
13852,849
13854,814
13856,813
13858,871
13860,931
13862,931
13864,931
13866,931
13868,931
13870,931
13872,931
13874,931
13876,931
13878,931
13880,931
13882,931
13885,931
13887,931
13889,931
13891,931
13893,930
13895,912
13897,883
13899,854
13901,827
13903,804
13905,784
13907,765
13909,741
13911,712
13913,690
13915,677
13917,651
13919,625
13921,597
13923,591
13925,647
13927,659
13929,655
13931,713
13933,776
13935,767
13937,747
13939,726
13941,696
13943,708
13945,785
13947,815
13949,824
13951,900
13953,909
13955,926
13957,931
13959,931
13961,931
13963,931
13965,931
13967,931
13970,931
13972,931
13974,931
13976,931
13978,931
13980,931
13982,923
13984,898
13986,900
13988,906
13990,882
13992,870
13994,876
13996,868
13998,848
14000,816
14002,786
14004,780
14006,780
14008,766
14010,755
14013,744
14015,719
14017,733
14019,750
14021,733
14023,708
14025,684
14027,676
14029,662
14031,644
14033,639
14035,623
14037,602
14039,637
14041,690
14043,700
14045,712
14047,778
14049,819
14051,815
14053,784
14055,767
14057,739
14059,716
14061,695
14063,675
14065,653
14067,630
14069,623
14071,595
14073,569
14075,543
14077,519
14079,496
14081,474
14083,456
14085,444
14087,454
14089,467
14091,460
14093,455
14095,471
14098,491
14100,500
14102,489
14104,482
14106,499
14108,539
14110,555
14112,557
14114,605
14116,619
14118,601
14120,610
14122,624
14124,607
14126,621
14128,649
14130,650
14132,624
14134,599
14136,586
14138,592
14141,601
14143,607
14145,592
14147,586
14149,615
14151,633
14153,615
14155,591
14157,569
14159,549
14161,530
14163,511
14165,492
14167,474
14169,455
14171,437
14173,422
14175,404
14177,386
14179,370
14181,355
14183,349
14185,335
14187,322
14189,310
14191,296
14193,283
14195,271
14197,260
14199,249
14201,239
14203,229
14205,219
14207,211
14209,203
14211,195
14213,187
14215,182
14217,178
14219,171
14221,165
14223,159
14226,153
14228,146
14230,143
14232,140
14234,134
14236,129
14238,127
14240,123
14242,118
14244,114
14246,110
14248,107
14250,103
14252,100
14254,96
14256,93
14258,90
14260,90
14262,88
14264,85
14266,83
14269,80
14271,81
14273,81
14275,80
14277,78
14279,75
14281,75
14283,314
14285,342
14287,367
14289,386
14291,396
14293,398
14295,526
14297,552
14299,572
14301,578
14303,582
14305,580
14307,573
14309,554
14311,543
14313,532
14315,520
14317,502
14319,493
14321,477
14323,463
14325,449
14327,434
14329,418
14331,403
14333,387
14335,371
14337,356
14339,341
14341,326
14343,314
14345,307
14347,302
14349,294
14351,283
14354,275
14356,267
14358,268
14360,264
14362,255
14364,244
14366,236
14368,235
14370,228
14372,223
14374,216
14376,218
14378,213
14380,206
14382,205
14384,202
14386,194
14388,188
14390,182
14392,179
14394,178
14397,176
14399,178
14401,179
14403,184
14405,181
14407,186
14409,184
14411,180
14413,179
14415,179
14417,175
14419,189
14421,197
14423,328
14425,439
14427,605
14429,685
14431,703
14433,715
14435,713
14437,709
14439,706
14441,705
14443,710
14445,693
14447,681
14449,656
14451,627
14453,608
14455,596
14457,589
14459,722
14461,723
14463,709
14465,700
14467,676
14469,656
14471,636
14473,615
14475,590
14477,584
14479,576
14482,563
14484,554
14486,538
14488,532
14490,517
14492,505
14494,501
14496,490
14498,470
14500,451
14502,438
14504,423
14506,407
14508,391
14510,385
14512,387
14514,377
14516,383
14518,380
14520,386
14522,377
14525,362
14527,354
14529,368
14531,365
14533,358
14535,358
14537,348
14539,343
14541,338
14543,327
14545,325
14547,314
14549,306
14551,298
14553,297
14555,300
14557,307
14559,308
14561,303
14563,294
14565,291
14567,285
14569,282
14571,279
14573,296
14575,312
14577,316
14579,314
14581,307
14583,299
14585,294
14587,289
14589,281
14591,282
14593,278
14595,269
14597,264
14599,267
14601,273
14603,298
14605,295
14607,288
14610,284
14612,287
14614,283
14616,283
14618,283
14620,273
14622,265
14624,262
14626,260
14628,258
14630,249
14632,241
14634,233
14636,230
14638,225
14640,219
14642,213
14644,214
14646,219
14648,213
14650,210
14653,209
14655,216
14657,214
14659,214
14661,211
14663,203
14665,202
14667,202
14669,194
14671,193
14673,209
14675,208
14677,205
14679,202
14681,195
14683,187
14685,179
14687,176
14689,175
14691,174
14693,173
14695,169
14697,168
14699,165
14701,160
14703,154
14705,148
14707,144
14709,148
14711,158
14713,161
14715,158
14717,168
14719,170
14721,166
14723,170
14725,177
14727,187
14729,230
14731,280
14733,290
14735,322
14738,382
14740,419
14742,416
14744,405
14746,396
14748,386
14750,375
14752,374
14754,392
14756,403
14758,401
14760,393
14762,389
14764,419
14766,452
14768,465
14770,454
14772,443
14774,432
14776,442
14778,462
14781,460
14783,454
14785,512
14787,628
14789,692
14791,692
14793,764
14795,855
14797,912
14799,928
14801,898
14803,911
14805,930
14807,923
14809,931
14811,931
14813,931
14815,917
14817,916
14819,920
14821,903
14823,928
14825,931
14827,931
14829,931
14831,931
14833,931
14835,931
14837,931
14839,931
14841,931
14843,931
14845,931
14847,932
14849,931
14851,932
14853,932
14855,932
14857,931
14859,932
14861,931
14863,932
14866,931
14868,931
14870,931
14872,932
14874,931
14876,931
14878,931
14880,932
14882,932
14884,932
14886,932
14888,932
14890,932
14892,931
14894,932
14896,931
14898,932
14900,932
14902,932
14904,931
14906,932
14909,932
14911,932
14913,932
14915,931
14917,931
14919,931
14921,931
14923,931
14925,931
14927,931
14929,931
14931,931
14933,931
14935,931
14937,931
14939,931
14941,931
14943,931
14945,931
14947,931
14949,931
14951,931
14953,931
14955,931
14957,931
14959,931
14961,931
14963,931
14965,931
14967,931
14969,931
14971,932
14973,932
14975,931
14977,931
14979,931
14981,931
14983,931
14985,931
14987,932
14989,931
14991,931
14994,931
14996,931
14998,931
15000,932
15002,932
15004,931
15006,932
15008,931
15010,931
15012,931
15014,932
15016,932
15018,931
15020,932
15022,932
15024,932
15026,932
15028,931
15030,931
15032,932
15034,932
15037,932
15039,932
15041,932
15043,932
15045,932
15047,932
15049,932
15051,932
15053,932
15055,932
15057,932
15059,931
15061,931
15063,932
15065,932
15067,932
15069,932
15071,932
15073,932
15075,931
15077,931
15079,932
15081,932
15083,932
15085,932
15087,932
15089,932
15091,932
15093,932
15095,932
15097,932
15099,932
15101,932
15103,932
15105,931
15107,932
15109,932
15111,932
15113,932
15115,931
15117,932
15119,932
15122,932
15124,932
15126,932
15128,932
15130,931
15132,932
15134,932
15136,932
15138,932
15140,931
15142,932
15144,931
15146,932
15148,932
15150,932
15152,931
15154,932
15156,931
15158,932
15160,932
15162,932
15165,931
15167,932
15169,932
15171,932
15173,932
15175,931
15177,932
15179,931
15181,931
15183,932
15185,932
15187,932
15189,932
15191,932
15193,931
15195,931
15197,931
15199,932
15201,931
15203,932
15205,932
15207,932
15209,931
15211,932
15213,932
15215,932
15217,932
15219,931
15221,932
15223,932
15225,932
15227,931
15229,931
15231,932
15233,931
15235,932
15237,932
15239,932
15241,931
15243,932
15245,932
15247,932
15250,932
15252,932
15254,932
15256,932
15258,932
15260,932
15262,932
15264,931
15266,931
15268,931
15270,932
15272,932
15274,931
15276,932
15278,932
15280,932
15282,931
15284,932
15286,931
15288,931
15290,931
15293,932
15295,932
15297,932
15299,931
15301,931
15303,931
15305,932
15307,932
15309,931
15311,932
15313,932
15315,932
15317,932
15319,932
15321,932
15323,932
15325,932
15327,932
15329,931
15331,932
15333,931
15335,932
15337,932
15339,932
15341,932
15343,932
15345,931
15347,932
15349,932
15351,932
15353,931
15355,932
15357,932
15359,932
15361,932
15363,932
15365,932
15367,931
15369,932
15371,932
15373,932
15375,932
15378,932
15380,932
15382,932
15384,932
15386,932
15388,932
15390,932
15392,932
15394,932
15396,931
15398,932
15400,931
15402,932
15404,932
15406,932
15408,931
15410,932
15412,932
15414,931
15416,931
15418,932
15421,932
15423,932
15425,931
15427,932
15429,932
15431,931
15433,932
15435,931
15437,932
15439,931
15441,932
15443,931
15445,931
15447,931
15449,931
15451,931
15453,931
15455,931
15457,931
15459,931
15461,931
15463,931
15465,931
15467,931
15469,931
15471,931
15473,916
15475,874
15477,841
15479,844
15481,836
15483,851
15485,866
15487,839
15489,818
15491,782
15493,755
15495,751
15497,753
15499,735
15501,764
15503,761
15506,750
15508,749
15510,762
15512,740
15514,756
15516,798
15518,815
15520,786
15522,751
15524,725
15526,716
15528,695
15530,682
15532,662
15534,639
15536,612
15538,593
15540,582
15542,572
15544,573
15546,560
15549,544
15551,531
15553,560
15555,723
15557,777
15559,789
15561,801
15563,807
15565,777
15567,746
15569,719
15571,751
15573,742
15575,777
15577,778
15579,812
15581,838
15583,853
15585,902
15587,871
15589,843
15591,831
15593,841
15595,827
15597,853
15599,847
15601,838
15603,811
15605,803
15607,784
15609,782
15611,751
15613,729
15615,735
15617,723
15619,727
15621,780
15623,825
15625,833
15627,931
15629,931
15631,931
15634,931
15636,931
15638,931
15640,931
15642,931
15644,931
15646,931
15648,931
15650,931
15652,931
15654,931
15656,931
15658,918
15660,900
15662,882
15664,874
15666,872
15668,852
15670,881
15672,931
15674,931
15677,931
15679,931
15681,931
15683,931
15685,931
15687,931
15689,931
15691,931
15693,931
15695,931
15697,931
15699,931
15701,931
15703,931
15705,931
15707,931
15709,931
15711,913
15713,879
15715,858
15717,833
15719,825
15721,804
15723,777
15725,769
15727,762
15729,799
15731,849
15733,859
15735,857
15737,921
15739,931
15741,931
15743,931
15745,931
15747,931
15749,931
15751,931
15753,931
15755,931
15757,931
15759,931
15762,931
15764,931
15766,931
15768,931
15770,931
15772,931
15774,931
15776,931
15778,931
15780,931
15782,931
15784,931
15786,931
15788,931
15790,931
15792,931
15794,931
15796,931
15798,931
15800,931
15802,931
15805,931
15807,931
15809,931
15811,931
15813,931
15815,931
15817,931
15819,931
15821,931
15823,931
15825,931
15827,931
15829,931
15831,931
15833,931
15835,930
15837,931
15839,930
15841,897
15843,881
15845,889
15847,890
15849,887
15851,911
15853,886
15855,898
15857,923
15859,895
15861,863
15863,830
15865,794
15867,758
15869,726
15871,733
15873,931
15875,931
15877,931
15879,931
15881,931
15883,931
15885,931
15887,931
15890,931
15892,931
15894,931
15896,931
15898,931
15900,931
15902,931
15904,931
15906,931
15908,931
15910,931
15912,931
15914,931
15916,931
15918,931
15920,931
15922,931
15924,931
15926,931
15928,931
15930,924
15933,897
15935,881
15937,889
15939,912
15941,889
15943,916
15945,916
15947,887
15949,855
15951,859
15953,931
15955,931
15957,931
15959,931
15961,931
15963,931
15965,931
15967,931
15969,931
15971,931
15973,931
15975,931
15977,931
15979,931
15981,931
15983,931
15985,931
15987,931
15989,931
15991,931
15993,931
15995,931
15997,931
15999,931
16001,931
16003,931
16005,931
16007,931
16009,931
16011,931
16013,930
16015,902
16018,863
16020,836
16022,834
16024,846
16026,825
16028,816
16030,808
16032,891
16034,931
16036,931
16038,931
16040,931
16042,931
16044,931
16046,931
16048,931
16050,931
16052,931
16054,931
16056,931
16058,931
16061,931
16063,931
16065,931
16067,931
16069,931
16071,931
16073,931
16075,931
16077,920
16079,924
16081,930
16083,908
16085,888
16087,862
16089,825
16091,818
16093,827
16095,807
16097,776
16099,750
16101,733
16103,735
16105,756
16107,768
16109,771
16111,751
16113,768
16115,798
16117,815
16119,795
16121,768
16123,743
16125,720
16127,698
16129,676
16131,699
16133,758
16135,766
16137,787
16139,855
16141,864
16143,827
16146,793
16148,758
16150,724
16152,707
16154,720
16156,734
16158,716
16160,727
16162,736
16164,715
16166,687
16168,658
16170,631
16172,608
16174,586
16176,564
16178,541
16180,518
16182,497
16184,493
16186,494
16189,480
16191,471
16193,475
16195,470
16197,476
16199,516
16201,530
16203,512
16205,493
16207,473
16209,453
16211,433
16213,415
16215,398
16217,383
16219,370
16221,357
16223,342
16225,327
16227,313
16229,300
16231,294
16233,284
16235,273
16237,268
16239,260
16241,251
16243,249
16245,247
16247,238
16249,229
16251,221
16253,214
16255,207
16257,198
16259,191
16261,188
16263,182
16265,176
16267,171
16269,164
16271,159
16274,152
16276,146
16278,141
16280,135
16282,130
16284,125
16286,120
16288,116
16290,113
16292,109
16294,110
16296,108
16298,105
16300,103
16302,101
16304,98
16306,94
16308,93
16310,91
16312,91
16314,91
16317,89
16319,87
16321,83
16323,81
16325,212
16327,226
16329,233
16331,238
16333,243
16335,245
16337,244
16339,241
16341,236
16343,228
16345,220
16347,214
16349,207
16351,309
16353,319
16355,323
16357,323
16359,322
16361,316
16363,306
16365,301
16367,293
16369,282
16371,275
16373,263
16375,254
16377,244
16379,236
16381,229
16383,221
16385,212
16387,204
16389,195
16391,191
16393,185
16395,178
16397,176
16399,171
16402,168
16404,162
16406,156
16408,153
16410,149
16412,143
16414,147
16416,146
16418,142
16420,140
16422,134
16424,132
16426,127
16428,124
16430,124
16432,124
16434,123
16436,124
16438,120
16440,118
16442,113
16445,110
16447,110
16449,111
16451,117
16453,126
16455,136
16457,133
16459,131
16461,135
16463,136
16465,143
16467,158
16469,163
16471,162
16473,159
16475,156
16477,155
16479,164
16481,157
16483,152
16485,148
16487,147
16489,145
16491,146
16493,142
16495,139
16497,136
16499,136
16501,134
16503,132
16505,128
16507,125
16509,124
16511,138
16513,140
16515,137
16517,134
16519,135
16521,143
16523,139
16525,144
16527,146
16530,152
16532,152
16534,147
16536,147
16538,149
16540,147
16542,148
16544,145
16546,145
16548,145
16550,144
16552,141
16554,147
16556,144
16558,142
16560,159
16562,171
16564,178
16566,182
16568,177
16570,171
16573,165
16575,166
16577,172
16579,168
16581,162
16583,168
16585,167
16587,171
16589,177
16591,182
16593,191
16595,190
16597,197
16599,199
16601,196
16603,196
16605,206
16607,208
16609,208
16611,206
16613,202
16615,199
16617,191
16619,198
16621,195
16623,190
16625,206
16627,207
16629,199
16631,194
16633,200
16635,200
16637,201
16639,195
16641,197
16643,195
16645,192
16647,188
16649,184
16651,179
16653,172
16655,181
16658,178
16660,180
16662,182
16664,177
16666,176
16668,176
16670,179
16672,176
16674,170
16676,163
16678,157
16680,150
16682,144
16684,139
16686,133
16688,128
16690,123
16692,118
16694,114
16696,110
16698,107
16701,116
16703,130
16705,133
16707,130
16709,132
16711,130
16713,130
16715,127
16717,137
16719,145
16721,140
16723,144
16725,175
16727,220
16729,244
16731,253
16733,298
16735,334
16737,351
16739,362
16741,359
16743,354
16745,342
16747,337
16749,329
16751,371
16753,446
16755,516
16757,528
16759,558
16761,623
16763,670
16765,689
16767,670
16769,656
16771,653
16773,661
16775,666
16777,691
16779,709
16781,695
16783,692
16786,727
16788,760
16790,762
16792,743
16794,765
16796,765
16798,763
16800,792
16802,772
16804,767
16806,747
16808,739
16810,735
16812,727
16814,701
16816,692
16818,749
16820,828
16822,829
16824,925
16826,931
16829,931
16831,931
16833,931
16835,931
16837,931
16839,931
16841,931
16843,931
16845,931
16847,931
16849,931
16851,931
16853,931
16855,931
16857,931
16859,931
16861,931
16863,931
16865,931
16867,931
16869,931
16871,931
16873,931
16875,931
16877,931
16879,931
16881,931
16883,931
16885,931
16887,931
16889,931
16891,932
16893,932
16895,932
16897,931
16899,932
16901,931
16903,931
16905,932
16907,931
16909,932
16911,932
16914,931
16916,931
16918,932
16920,931
16922,932
16924,931
16926,931
16928,932
16930,931
16932,931
16934,931
16936,931
16938,931
16940,931
16942,931
16944,931
16946,931
16948,931
16950,931
16952,932
16954,931
16957,931
16959,931
16961,931
16963,931
16965,931
16967,931
16969,931
16971,931
16973,931
16975,931
16977,931
16979,931
16981,931
16983,931
16985,932
16987,931
16989,931
16991,932
16993,932
16995,931
16997,931
16999,931
17001,931
17003,932
17005,931
17007,931
17009,931
17011,931
17013,932
17015,932
17017,931
17019,931
17021,932
17023,932
17025,931
17027,931
17029,932
17031,932
17033,932
17035,932
17037,932
17039,931
17042,931
17044,932
17046,932
17048,932
17050,932
17052,932
17054,931
17056,931
17058,931
17060,931
17062,931
17064,932
17066,931
17068,931
17070,932
17072,932
17074,931
17076,931
17078,931
17080,932
17082,932
17085,932
17087,931
17089,931
17091,932
17093,931
17095,931
17097,932
17099,932
17101,931
17103,932
17105,932
17107,931
17109,932
17111,931
17113,932
17115,931
17117,932
17119,932
17121,932
17123,932
17125,931
17127,932
17129,931
17131,932
17133,932
17135,932
17137,932
17139,931
17141,932
17143,932
17145,932
17147,932
17149,932
17151,932
17153,931
17155,932
17157,932
17159,932
17161,931
17163,932
17165,932
17167,932
17170,932
17172,932
17174,932
17176,932
17178,932
17180,932
17182,931
17184,932
17186,931
17188,931
17190,932
17192,931
17194,932
17196,931
17198,931
17200,932
17202,932
17204,932
17206,932
17208,932
17210,932
17213,932
17215,932
17217,932
17219,931
17221,932
17223,932
17225,932
17227,932
17229,932
17231,932
17233,932
17235,932
17237,931
17239,931
17241,932
17243,931
17245,931
17247,932
17249,931
17251,931
17253,931
17255,932
17257,932
17259,932
17261,932
17263,932
17265,932
17267,931
17269,931
17271,932
17273,932
17275,932
17277,932
17279,932
17281,932
17283,932
17285,931
17287,932
17289,932
17291,932
17293,932
17295,931
17298,932
17300,932
17302,932
17304,932
17306,932
17308,931
17310,932
17312,932
17314,932
17316,932
17318,931
17320,931
17322,932
17324,932
17326,932
17328,932
17330,932
17332,931
17334,932
17336,932
17338,932
17341,932
17343,932
17345,931
17347,932
17349,932
17351,932
17353,931
17355,932
17357,932
17359,932
17361,932
17363,931
17365,932
17367,932
17369,932
17371,932
17373,931
17375,932
17377,932
17379,932
17381,932
17383,932
17385,932
17387,931
17389,931
17391,932
17393,932
17395,932
17397,932
17399,932
17401,932
17403,931
17405,932
17407,932
17409,932
17411,932
17413,931
17415,932
17417,932
17419,932
17421,932
17423,932
17426,931
17428,931
17430,932
17432,932
17434,932
17436,931
17438,931
17440,932
17442,932
17444,932
17446,932
17448,932
17450,931
17452,932
17454,931
17456,932
17458,932
17460,932
17462,932
17464,932
17466,931
17469,931
17471,932
17473,932
17475,932
17477,932
17479,932
17481,931
17483,932
17485,932
17487,932
17489,932
17491,931
17493,931
17495,931
17497,931
17499,931
17501,931
17503,931
17505,931
17507,931
17509,931
17511,931
17513,931
17515,931
17517,931
17519,931
17521,931
17523,931
17525,931
17527,931
17529,931
17531,931
17533,931
17535,931
17537,931
17539,931
17541,931
17543,931
17545,904
17547,863
17549,824
17551,789
17554,763
17556,735
17558,709
17560,682
17562,670
17564,703
17566,712
17568,777
17570,775
17572,772
17574,751
17576,736
17578,713
17580,693
17582,670
17584,655
17586,659
17588,675
17590,666
17592,671
17594,667
17597,640
17599,643
17601,707
17603,706
17605,738
17607,796
17609,804
17611,777
17613,765
17615,743
17617,716
17619,746
17621,744
17623,778
17625,791
17627,780
17629,748
17631,719
17633,694
17635,707
17637,727
17639,713
17641,699
17643,732
17645,741
17647,758
17649,762
17651,797
17653,782
17655,850
17657,896
17659,858
17661,824
17663,795
17665,759
17667,725
17669,693
17671,664
17673,646
17675,672
17677,734
17679,742
17682,818
17684,815
17686,791
17688,779
17690,766
17692,766
17694,740
17696,724
17698,707
17700,732
17702,749
17704,806
17706,815
17708,931
17710,931
17712,931
17714,931
17716,931
17718,931
17720,931
17722,931
17725,931
17727,931
17729,931
17731,931
17733,931
17735,931
17737,931
17739,931
17741,931
17743,931
17745,931
17747,931
17749,931
17751,931
17753,931
17755,931
17757,931
17759,931
17761,931
17763,931
17765,931
17767,931
17769,931
17771,931
17773,931
17775,931
17777,931
17779,931
17781,931
17783,931
17785,931
17787,931
17789,931
17791,931
17793,931
17795,931
17797,931
17799,931
17801,931
17803,931
17805,931
17807,931
17810,931
17812,931
17814,931
17816,931
17818,931
17820,931
17822,931
17824,931
17826,931
17828,931
17830,931
17832,931
17834,931
17836,931
17838,931
17840,931
17842,931
17844,931
17846,931
17848,931
17850,931
17853,932
17855,931
17857,931
17859,931
17861,931
17863,931
17865,931
17867,931
17869,931
17871,931
17873,931
17875,931
17877,931
17879,931
17881,931
17883,931
17885,931
17887,931
17889,931
17891,931
17893,931
17895,931
17897,931
17899,931
17901,931
17903,931
17905,931
17907,931
17909,931
17911,931
17913,931
17915,931
17917,931
17919,931
17921,931
17923,931
17925,931
17927,931
17929,931
17931,931
17933,931
17935,931
17938,931
17940,931
17942,931
17944,931
17946,931
17948,930
17950,892
17952,853
17954,821
17956,791
17958,761
17960,736
17962,729
17964,707
17966,700
17968,689
17970,665
17972,646
17974,652
17976,670
17978,653
17981,685
17983,688
17985,714
17987,704
17989,717
17991,696
17993,696
17995,671
17997,668
17999,665
18001,658
18003,684
18005,681
18007,658
18009,656
18011,674
18013,699
18015,687
18017,708
18019,749
18021,743
18023,734
18025,723
18027,704
18029,708
18031,711
18033,693
18035,683
18037,678
18039,660
18041,635
18043,619
18045,613
18047,604
18049,581
18051,559
18053,539
18055,556
18057,583
18059,571
18061,580
18063,592
18066,593
18068,596
18070,584
18072,581
18074,570
18076,590
18078,585
18080,585
18082,569
18084,556
18086,553
18088,537
18090,517
18092,501
18094,491
18096,485
18098,475
18100,465
18102,447
18104,434
18106,430
18109,420
18111,403
18113,390
18115,378
18117,369
18119,367
18121,368
18123,423
18125,528
18127,616
18129,612
18131,663
18133,751
18135,839
18137,894
18139,904
18141,873
18143,839
18145,810
18147,787
18149,765
18151,755
18153,737
18155,720
18157,700
18159,676
18161,659
18163,654
18165,652
18167,633
18169,618
18171,620
18173,606
18175,581
18177,556
18179,533
18181,539
18183,574
18185,614
18187,606
18189,634
18191,659
18194,643
18196,621
18198,597
18200,588
18202,593
18204,601
18206,589
18208,563
18210,538
18212,514
18214,495
18216,479
18218,465
18220,453
18222,445
18224,448
18226,457
18228,451
18230,449
18232,469
18234,471
18237,452
18239,435
18241,420
18243,407
18245,392
18247,375
18249,379
18251,407
18253,412
18255,415
18257,442
18259,443
18261,431
18263,416
18265,405
18267,400
18269,393
18271,379
18273,377
18275,383
18277,384
18279,377
18281,375
18283,386
18285,384
18287,374
18289,359
18291,352
18293,343
18295,330
18297,321
18299,309
18301,297
18303,287
18305,277
18307,266
18309,257
18311,247
18313,238
18315,228
18317,218
18319,209
18322,200
18324,192
18326,183
18328,176
18330,168
18332,161
18334,155
18336,149
18338,143
18340,137
18342,131
18344,126
18346,121
18348,116
18350,112
18352,107
18354,103
18356,99
18358,96
18360,93
18362,90
18365,86
18367,85
18369,83
18371,80
18373,78
18375,77
18377,74
18379,72
18381,69
18383,69
18385,68
18387,70
18389,68
18391,69
18393,67
18395,65
18397,64
18399,66
18401,64
18403,63
18405,61
18407,60
18409,58
18411,56
18413,54
18415,52
18417,50
18419,50
18421,50
18423,49
18425,48
18427,49
18429,48
18431,48
18433,47
18435,47
18437,47
18439,48
18441,47
18443,47
18445,46
18447,45
18450,45
18452,46
18454,45
18456,45
18458,49
18460,51
18462,49
18464,48
18466,47
18468,47
18470,45
18472,45
18474,47
18476,46
18478,45
18480,43
18482,43
18484,41
18486,41
18488,42
18490,41
18493,40
18495,39
18497,39
18499,41
18501,43
18503,42
18505,41
18507,41
18509,41
18511,47
18513,55
18515,124
18517,238
18519,267
18521,278
18523,286
18525,289
18527,295
18529,297
18531,285
18533,277
18535,273
18537,265
18539,264
18541,259
18543,255
18545,254
18547,250
18549,256
18551,416
18553,442
18555,454
18557,457
18559,456
18561,451
18563,453
18565,441
18567,424
18569,409
18571,394
18573,384
18575,379
18578,372
18580,366
18582,354
18584,339
18586,328
18588,316
18590,317
18592,311
18594,301
18596,297
18598,293
18600,284
18602,276
18604,274
18606,267
18608,264
18610,261
18612,254
18614,247
18616,247
18618,240
18621,230
18623,221
18625,216
18627,208
18629,201
18631,193
18633,186
18635,187
18637,182
18639,176
18641,170
18643,164
18645,162
18647,160
18649,158
18651,152
18653,151
18655,161
18657,169
18659,185
18661,181
18663,179
18665,176
18667,184
18669,185
18671,181
18673,176
18675,172
18677,172
18679,167
18681,164
18683,162
18685,162
18687,158
18689,157
18691,151
18693,146
18695,142
18697,137
18699,134
18701,130
18703,126
18706,124
18708,120
18710,118
18712,125
18714,127
18716,137
18718,153
18720,153
18722,152
18724,162
18726,164
18728,170
18730,166
18732,165
18734,162
18736,160
18738,157
18740,154
18742,151
18744,152
18746,147
18749,141
18751,136
18753,140
18755,142
18757,136
18759,135
18761,135
18763,133
18765,132
18767,141
18769,143
18771,139
18773,141
18775,138
18777,148
18779,156
18781,155
18783,152
18785,150
18787,146
18789,141
18791,138
18793,133
18795,128
18797,123
18799,118
18801,113
18803,109
18805,105
18807,101
18809,98
18811,98
18813,97
18815,95
18817,91
18819,89
18821,89
18823,87
18825,86
18827,85
18829,82
18831,79
18834,79
18836,78
18838,78
18840,79
18842,86
18844,93
18846,94
18848,106
18850,105
18852,110
18854,121
18856,128
18858,129
18860,131
18862,153
18864,179
18866,191
18868,186
18870,185
18872,192
18874,201
18877,213
18879,222
18881,227
18883,224
18885,233
18887,235
18889,227
18891,221
18893,226
18895,251
18897,269
18899,268
18901,260
18903,257
18905,253
18907,250
18909,254
18911,295
18913,363
18915,416
18917,418
18919,439
18921,496
18923,523
18925,529
18927,525
18929,522
18931,518
18933,498
18935,492
18937,543
18939,647
18941,714
18943,702
18945,723
18947,753
18949,756
18951,748
18953,787
18955,865
18957,911
18959,909
18962,931
18964,931
18966,931
18968,931
18970,931
18972,931
18974,931
18976,931
18978,931
18980,931
18982,931
18984,931
18986,931
18988,931
18990,931
18992,931
18994,931
18996,931
18998,931
19000,931
19002,931
19005,931
19007,931
19009,931
19011,931
19013,931
19015,931
19017,931
19019,931
19021,931
19023,931
19025,931
19027,931
19029,931
19031,931
19033,931
19035,931
19037,930
19039,927
19041,927
19043,931
19045,931
19047,931
19049,931
19051,931
19053,931
19055,931
19057,931
19059,931
19061,931
19063,931
19065,931
19067,931
19069,931
19071,931
19073,931
19075,931
19077,931
19079,931
19081,931
19083,931
19085,931
19087,931
19090,931
19092,931
19094,932
19096,932
19098,932
19100,931
19102,931
19104,932
19106,931
19108,932
19110,932
19112,932
19114,932
19116,932
19118,932
19120,932
19122,932
19124,931
19126,932
19128,932
19130,932
19133,932
19135,932
19137,931
19139,931
19141,931
19143,932
19145,932
19147,932
19149,932
19151,932
19153,931
19155,932
19157,931
19159,931
19161,931
19163,932
19165,932
19167,932
19169,931
19171,931
19173,932
19175,932
19177,931
19179,931
19181,931
19183,932
19185,932
19187,932
19189,932
19191,931
19193,931
19195,932
19197,932
19199,932
19201,932
19203,932
19205,932
19207,932
19209,932
19211,932
19213,932
19215,931
19218,932
19220,932
19222,931
19224,932
19226,931
19228,932
19230,932
19232,932
19234,931
19236,932
19238,932
19240,932
19242,932
19244,932
19246,931
19248,932
19250,932
19252,932
19254,932
19256,932
19258,932
19261,932
19263,932
19265,932
19267,932
19269,932
19271,931
19273,932
19275,932
19277,931
19279,932
19281,932
19283,932
19285,932
19287,932
19289,932
19291,931
19293,932
19295,932
19297,932
19299,931
19301,932
19303,932
19305,932
19307,932
19309,932
19311,932
19313,932
19315,932
19317,932
19319,931
19321,931
19323,932
19325,932
19327,932
19329,931
19331,931
19333,932
19335,932
19337,932
19339,931
19341,932
19343,931
19346,932
19348,931
19350,932
19352,932
19354,932
19356,932
19358,931
19360,932
19362,932
19364,932
19366,932
19368,932
19370,932
19372,932
19374,932
19376,931
19378,931
19380,932
19382,932
19384,931
19386,932
19389,932
19391,931
19393,931
19395,932
19397,932
19399,932
19401,932
19403,931
19405,932
19407,932
19409,932
19411,932
19413,932
19415,932
19417,932
19419,931
19421,931
19423,932
19425,932
19427,931
19429,932
19431,932
19433,932
19435,931
19437,932
19439,932
19441,932
19443,932
19445,931
19447,931
19449,932
19451,932
19453,932
19455,932
19457,932
19459,931
19461,932
19463,932
19465,932
19467,932
19469,931
19471,931
19474,932
19476,932
19478,932
19480,932
19482,932
19484,932
19486,932
19488,931
19490,932
19492,932
19494,931
19496,931
19498,931
19500,931
19502,932
19504,932
19506,932
19508,932
19510,932
19512,932
19514,932
19517,932
19519,932
19521,932
19523,932
19525,932
19527,932
19529,932
19531,931
19533,932
19535,931
19537,932
19539,932
19541,932
19543,932
19545,931
19547,932
19549,931
19551,931
19553,931
19555,931
19557,931
19559,931
19561,932
19563,931
19565,931
19567,931
19569,931
19571,931
19573,931
19575,931
19577,931
19579,931
19581,932
19583,931
19585,931
19587,931
19589,931
19591,931
19593,931
19595,931
19597,931
19599,931
19602,931
19604,931
19606,931
19608,931
19610,931
19612,931
19614,931
19616,931
19618,931
19620,931
19622,931
19624,931
19626,931
19628,931
19630,931
19632,931
19634,931
19636,931
19638,931
19640,931
19642,931
19645,931
19647,931
19649,931
19651,931
19653,931
19655,931
19657,931
19659,931
19661,904
19663,881
19665,895
19667,931
19669,931
19671,931
19673,931
19675,931
19677,931
19679,931
19681,931
19683,932
19685,932
19687,932
19689,931
19691,932
19693,931
19695,931
19697,931
19699,931
19701,931
19703,931
19705,931
19707,931
19709,931
19711,931
19713,931
19715,931
19717,931
19719,931
19721,931
19723,931
19725,931
19727,931
19730,931
19732,931
19734,931
19736,931
19738,911
19740,872
19742,839
19744,827
19746,797
19748,788
19750,768
19752,787
19754,775
19756,756
19758,771
19760,768
19762,804
19764,808
19766,797
19768,775
19770,748
19773,722
19775,724
19777,703
19779,684
19781,710
19783,712
19785,738
19787,721
19789,709
19791,713
19793,706
19795,692
19797,673
19799,665
19801,651
19803,666
19805,819
19807,832
19809,816
19811,780
19813,751
19815,739
19817,723
19819,697
19821,677
19823,727
19825,882
19827,931
19829,931
19831,931
19833,931
19835,931
19837,931
19839,931
19841,931
19843,931
19845,931
19847,931
19849,931
19851,931
19853,931
19855,931
19858,931
19860,931
19862,930
19864,903
19866,873
19868,842
19870,857
19872,861
19874,931
19876,931
19878,931
19880,931
19882,931
19884,931
19886,931
19888,931
19890,931
19892,931
19894,931
19896,931
19898,931
19901,931
19903,931
19905,931
19907,931
19909,931
19911,931
19913,931
19915,931
19917,931
19919,931
19921,931
19923,931
19925,931
19927,931
19929,931
19931,931
19933,931
19935,931
19937,931
19939,930
19941,911
19943,892
19945,857
19947,857
19949,852
19951,863
19953,859
19955,837
19957,838
19959,860
19961,865
19963,896
19965,918
19967,931
19969,931
19971,931
19973,931
19975,931
19977,931
19979,931
19981,931
19983,931
19986,931
19988,931
19990,931
19992,931
19994,931
19996,931
19998,931
20000,931
20002,931
20004,931
20006,931
20008,931
20010,931
20012,931
20014,931
20016,931
20018,931
20020,931
20022,931
20024,931
20026,931
20029,931
20031,931
20033,931
20035,931
20037,931
20039,931
20041,931
20043,931
20045,931
20047,931
20049,931
20051,931
20053,931
20055,931
20057,931
20059,931
20061,931
20063,931
20065,931
20067,931
20069,931
20071,931
20073,931
20075,931
20077,931
20079,931
20081,931
20083,931
20085,931
20087,931
20089,931
20091,931
20093,931
20095,931
20097,931
20099,931
20101,931
20103,931
20105,931
20107,931
20109,931
20111,931
20114,931
20116,931
20118,931
20120,931
20122,931
20124,931
20126,931
20128,931
20130,931
20132,931
20134,931
20136,931
20138,931
20140,925
20142,898
20144,866
20146,840
20148,813
20150,779
20152,747
20154,745
20157,819
20159,931
20161,931
20163,931
20165,931
20167,931
20169,931
20171,931
20173,931
20175,931
20177,931
20179,931
20181,931
20183,931
20185,931
20187,931
20189,931
20191,931
20193,931
20195,931
20197,931
20199,931
20201,931
20203,931
20205,931
20207,926
20209,910
20211,899
20213,883
20215,860
20217,839
20219,823
20221,798
20223,804
20225,812
20227,806
20229,779
20231,802
20233,861
20235,898
20237,904
20239,883
20242,929
20244,931
20246,931
20248,931
20250,931
20252,931
20254,931
20256,931
20258,931
20260,931
20262,921
20264,894
20266,867
20268,838
20270,823
20272,831
20274,831
20276,800
20278,773
20280,749
20282,731
20285,722
20287,753
20289,772
20291,758
20293,741
20295,746
20297,737
20299,711
20301,701
20303,679
20305,673
20307,651
20309,642
20311,632
20313,609
20315,587
20317,569
20319,565
20321,574
20323,572
20325,568
20327,580
20329,606
20331,628
20333,633
20335,611
20337,591
20339,574
20341,559
20343,554
20345,571
20347,589
20349,579
20351,576
20353,589
20355,578
20357,559
20359,571
20361,589
20363,581
20365,568
20367,576
20370,584
20372,593
20374,586
20376,562
20378,540
20380,530
20382,537
20384,579
20386,645
20388,682
20390,673
20392,721
20394,777
20396,817
20398,847
20400,830
20402,797
20404,778
20406,787
20408,816
20410,825
20413,800
20415,806
20417,810
20419,800
20421,776
20423,743
20425,709
20427,679
20429,653
20431,631
20433,611
20435,592
20437,573
20439,551
20441,528
20443,504
20445,483
20447,463
20449,443
20451,424
20453,406
20455,397
20457,379
20459,364
20461,349
20463,335
20465,325
20467,311
20469,302
20471,295
20473,285
20475,274
20477,266
20479,258
20481,248
20483,241
20485,233
20487,225
20489,216
20491,211
20493,203
20495,194
20498,186
20500,181
20502,174
20504,167
20506,161
20508,155
20510,150
20512,144
20514,140
20516,135
20518,130
20520,125
20522,120
20524,116
20526,112
20528,108
20530,105
20532,103
20534,101
20536,100
20538,101
20541,100
20543,99
20545,100
20547,99
20549,101
20551,101
20553,99
20555,98
20557,97
20559,99
20561,96
20563,93
20565,91
20567,96
20569,98
20571,238
20573,282
20575,304
20577,320
20579,320
20581,319
20583,317
20585,313
20587,305
20589,310
20591,307
20593,295
20595,284
20597,274
20599,262
20601,251
20603,243
20605,235
20607,226
20609,221
20611,213
20613,209
20615,201
20617,194
20619,189
20621,181
20623,178
20626,177
20628,173
20630,169
20632,168
20634,165
20636,165
20638,162
20640,157
20642,160
20644,160
20646,160
20648,156
20650,158
20652,156
20654,156
20656,157
20658,156
20660,153
20662,148
20664,144
20666,139
20669,141
20671,139
20673,135
20675,135
20677,131
20679,130
20681,129
20683,130
20685,132
20687,133
20689,132
20691,131
20693,134
20695,138
20697,135
20699,135
20701,132
20703,133
20705,140
20707,140
20709,140
20711,307
20713,553
20715,606
20717,654
20719,700
20721,716
20723,705
20725,687
20727,681
20729,666
20731,658
20733,643
20735,618
20737,592
20739,576
20741,559
20743,536
20745,515
20747,492
20749,474
20751,455
20754,436
20756,419
20758,409
20760,406
20762,394
20764,380
20766,381
20768,369
20770,358
20772,348
20774,359
20776,360
20778,351
20780,346
20782,333
20784,323
20786,319
20788,307
20790,295
20792,287
20794,282
20797,276
20799,270
20801,259
20803,251
20805,247
20807,248
20809,242
20811,240
20813,233
20815,231
20817,233
20819,230
20821,229
20823,229
20825,227
20827,233
20829,237
20831,252
20833,246
20835,239
20837,232
20839,230
20841,238
20843,237
20845,232
20847,238
20849,238
20851,240
20853,239
20855,251
20857,263
20859,263
20861,264
20863,256
20865,251
20867,247
20869,247
20871,259
20873,258
20875,253
20877,246
20879,238
20882,236
20884,247
20886,240
20888,234
20890,234
20892,238
20894,238
20896,244
20898,239
20900,235
20902,227
20904,321
20906,344
20908,358
20910,355
20912,345
20914,340
20916,331
20918,326
20920,315
20922,304
20925,296
20927,285
20929,273
20931,262
20933,251
20935,241
20937,235
20939,229
20941,222
20943,214
20945,218
20947,227
20949,239
20951,244
20953,237
20955,229
20957,227
20959,234
20961,251
20963,271
20965,273
20967,268
20969,266
20971,276
20973,297
20975,334
20977,361
20979,358
20981,386
20983,392
20985,387
20987,381
20989,366
20991,356
20993,345
20995,355
20997,386
20999,424
21001,439
21003,437
21005,434
21007,477
21010,523
21012,532
21014,520
21016,537
21018,551
21020,564
21022,578
21024,571
21026,559
21028,615
21030,714
21032,800
21034,796
21036,832
21038,832
21040,857
21042,854
21044,886
21046,931
21048,931
21050,931
21053,931
21055,931
21057,931
21059,931
21061,931
21063,931
21065,931
21067,931
21069,931
21071,931
21073,931
21075,931
21077,931
21079,931
21081,931
21083,931
21085,931
21087,931
21089,932
21091,931
21093,931
21095,931
21097,932
21099,931
21101,931
21103,932
21105,931
21107,932
21109,932
21111,932
21113,932
21115,932
21117,931
21119,932
21121,931
21123,931
21125,932
21127,931
21129,931
21131,931
21133,931
21135,932
21138,932
21140,932
21142,931
21144,931
21146,932
21148,932
21150,932
21152,931
21154,931
21156,932
21158,932
21160,932
21162,932
21164,932
21166,932
21168,932
21170,931
21172,932
21174,932
21176,932
21178,931
21181,931
21183,931
21185,932
21187,931
21189,932
21191,932
21193,932
21195,932
21197,932
21199,932
21201,932
21203,932
21205,932
21207,932
21209,932
21211,931
21213,931
21215,932
21217,932
21219,932
21221,932
21223,932
21225,932
21227,932
21229,931
21231,932
21233,931
21235,932
21237,932
21239,932
21241,932
21243,931
21245,931
21247,931
21249,932
21251,931
21253,932
21255,932
21257,932
21259,932
21261,932
21263,931
21266,932
21268,932
21270,932
21272,932
21274,932
21276,931
21278,932
21280,932
21282,932
21284,932
21286,932
21288,932
21290,932
21292,931
21294,932
21296,932
21298,932
21300,932
21302,931
21304,931
21306,932
21309,932
21311,932
21313,932
21315,932
21317,932
21319,932
21321,932
21323,932
21325,932
21327,932
21329,932
21331,932
21333,931
21335,932
21337,932
21339,931
21341,931
21343,932
21345,932
21347,932
21349,932
21351,932
21353,932
21355,932
21357,931
21359,932
21361,932
21363,931
21365,932
21367,932
21369,932
21371,931
21373,932
21375,932
21377,932
21379,932
21381,932
21383,932
21385,932
21387,932
21389,932
21391,932
21394,931
21396,931
21398,932
21400,932
21402,932
21404,932
21406,932
21408,932
21410,931
21412,931
21414,932
21416,932
21418,931
21420,931
21422,932
21424,932
21426,931
21428,932
21430,932
21432,932
21434,932
21437,932
21439,932
21441,932
21443,932
21445,931
21447,932
21449,932
21451,932
21453,932
21455,932
21457,932
21459,932
21461,931
21463,932
21465,932
21467,932
21469,932
21471,932
21473,932
21475,932
21477,932
21479,932
21481,932
21483,932
21485,931
21487,932
21489,932
21491,931
21493,932
21495,932
21497,932
21499,931
21501,931
21503,932
21505,932
21507,932
21509,931
21511,932
21513,932
21515,932
21517,932
21519,932
21522,932
21524,932
21526,932
21528,932
21530,931
21532,932
21534,932
21536,932
21538,932
21540,932
21542,932
21544,932
21546,932
21548,932
21550,932
21552,932
21554,932
21556,932
21558,932
21560,932
21562,932
21565,931
21567,932
21569,932
21571,931
21573,932
21575,932
21577,932
21579,931
21581,932
21583,931
21585,932
21587,932
21589,932
21591,932
21593,932
21595,931
21597,932
21599,932
21601,932
21603,932
21605,932
21607,932
21609,932
21611,932
21613,932
21615,932
21617,931
21619,932
21621,931
21623,932
21625,932
21627,932
21629,932
21631,932
21633,932
21635,932
21637,931
21639,932
21641,932
21643,932
21645,932
21647,932
21650,932
21652,932
21654,932
21656,932
21658,932
21660,932
21662,932
21664,932
21666,932
21668,932
21670,932
21672,932
21674,932
21676,931
21678,932
21680,932
21682,932
21684,932
21686,931
21688,931
21690,931
21693,931
21695,931
21697,931
21699,931
21701,931
21703,931
21705,931
21707,931
21709,931
21711,931
21713,931
21715,931
21717,931
21719,931
21721,931
21723,931
21725,931
21727,931
21729,931
21731,931
21733,931
21735,931
21737,931
21739,931
21741,931
21743,931
21745,931
21747,931
21749,931
21751,931
21753,931
21755,931
21757,931
21759,931
21761,931
21763,931
21765,931
21767,931
21769,931
21771,931
21773,911
21775,871
21778,835
21780,803
21782,771
21784,740
21786,708
21788,685
21790,750
21792,779
21794,807
21796,892
21798,887
21800,850
21802,822
21804,843
21806,931
21808,931
21810,931
21812,931
21814,928
21816,931
21818,931
21821,931
21823,931
21825,931
21827,931
21829,931
21831,931
21833,931
21835,931
21837,931
21839,931
21841,930
21843,923
21845,893
21847,860
21849,846
21851,931
21853,931
21855,931
21857,931
21859,931
21861,931
21863,932
21865,931
21867,931
21869,931
21871,931
21873,931
21875,931
21877,931
21879,931
21881,931
21883,931
21885,931
21887,931
21889,931
21891,931
21893,931
21895,931
21897,931
21899,931
21901,931
21903,919
21906,884
21908,924
21910,931
21912,931
21914,931
21916,931
21918,931
21920,931
21922,931
21924,931
21926,931
21928,931
21930,931
21932,931
21934,931
21936,932
21938,932
21940,932
21942,931
21944,932
21946,932
21949,931
21951,932
21953,931
21955,931
21957,932
21959,931
21961,932
21963,931
21965,931
21967,932
21969,931
21971,931
21973,932
21975,931
21977,931
21979,931
21981,931
21983,931
21985,932
21987,931
21989,931
21991,932
21993,931
21995,931
21997,931
21999,931
22001,931
22003,931
22005,931
22007,931
22009,931
22011,931
22013,932
22015,931
22017,932
22019,931
22021,932
22023,931
22025,931
22027,931
22029,932
22031,931
22034,931
22036,931
22038,931
22040,931
22042,931
22044,932
22046,931
22048,931
22050,931
22052,931
22054,932
22056,931
22058,931
22060,931
22062,931
22064,931
22066,931
22068,931
22070,931
22072,931
22074,931
22077,931
22079,931
22081,931
22083,931
22085,931
22087,931
22089,931
22091,932
22093,932
22095,932
22097,931
22099,931
22101,932
22103,932
22105,932
22107,932
22109,931
22111,931
22113,932
22115,932
22117,931
22119,931
22121,931
22123,931
22125,931
22127,931
22129,931
22131,931
22133,931
22135,931
22137,931
22139,931
22141,931
22143,931
22145,931
22147,931
22149,931
22151,931
22153,931
22155,931
22157,931
22159,931
22162,931
22164,931
22166,931
22168,931
22170,931
22172,931
22174,931
22176,931
22178,928
22180,887
22182,860
22184,846
22186,842
22188,827
22190,800
22192,798
22194,793
22196,773
22198,742
22200,733
22202,729
22205,712
22207,703
22209,712
22211,705
22213,692
22215,704
22217,702
22219,674
22221,677
22223,705
22225,774
22227,813
22229,823
22231,918
22233,931
22235,931
22237,931
22239,931
22241,918
22243,887
22245,857
22247,843
22249,829
22251,842
22253,835
22255,806
22257,785
22259,755
22261,725
22263,713
22265,692
22267,677
22269,651
22271,632
22273,624
22275,600
22277,578
22279,648
22281,740
22283,751
22285,736
22287,712
22290,685
22292,659
22294,675
22296,751
22298,760
22300,790
22302,865
22304,899
22306,879
22308,858
22310,842
22312,864
22314,859
22316,846
22318,867
22320,856
22322,826
22324,839
22326,844
22328,826
22330,857
22333,876
22335,844
22337,815
22339,787
22341,762
22343,743
22345,718
22347,695
22349,682
22351,691
22353,701
22355,679
22357,670
22359,678
22361,669
22363,650
22365,630
22367,618
22369,603
22371,597
22373,626
22375,651
22377,689
22379,676
22381,700
22383,748
22385,760
22387,735
22389,716
22391,690
22393,681
22395,668
22397,648
22399,631
22401,613
22403,620
22405,611
22407,590
22409,571
22411,551
22413,533
22415,520
22418,504
22420,484
22422,463
22424,444
22426,424
22428,406
22430,388
22432,371
22434,355
22436,339
22438,325
22440,338
22442,414
22444,509
22446,537
22448,558
22450,637
22452,692
22454,709
22456,700
22458,683
22461,662
22463,667
22465,679
22467,658
22469,642
22471,622
22473,617
22475,654
22477,694
22479,691
22481,693
22483,719
22485,719
22487,706
22489,705
22491,694
22493,667
22495,644
22497,621
22499,600
22501,580
22503,571
22505,551
22507,532
22509,514
22511,500
22513,485
22515,466
22517,448
22519,439
22521,457
22523,465
22525,456
22527,447
22529,461
22531,460
22533,476
22535,530
22537,561
22539,556
22541,537
22543,515
22546,503
22548,512
22550,534
22552,533
22554,530
22556,540
22558,530
22560,509
22562,487
22564,465
22566,445
22568,425
22570,407
22572,391
22574,375
22576,360
22578,345
22580,331
22582,317
22584,303
22586,290
22589,278
22591,266
22593,257
22595,246
22597,236
22599,226
22601,216
22603,207
22605,198
22607,190
22609,310
22611,418
22613,447
22615,463
22617,471
22619,471
22621,467
22623,459
22625,448
22627,435
22629,420
22631,412
22633,396
22635,381
22637,367
22639,353
22641,340
22643,326
22645,312
22647,299
22649,288
22651,275
22653,264
22655,252
22657,241
22659,231
22661,222
22663,213
22665,205
22667,196
22669,189
22671,181
22674,174
22676,168
22678,161
22680,155
22682,151
22684,146
22686,142
22688,136
22690,133
22692,128
22694,124
22696,119
22698,115
22700,110
22702,106
22704,103
22706,101
22708,97
22710,93
22712,90
22714,86
22717,85
22719,82
22721,81
22723,78
22725,76
22727,74
22729,71
22731,68
22733,67
22735,64
22737,62
22739,60
22741,59
22743,57
22745,56
22747,54
22749,52
22751,51
22753,50
22755,48
22757,47
22759,48
22761,51
22763,52
22765,51
22767,53
22769,53
22771,55
22773,62
22775,213
22777,237
22779,271
22781,298
22783,304
22785,299
22787,291
22789,285
22791,275
22793,265
22795,262
22797,258
22799,521
22802,552
22804,569
22806,581
22808,588
22810,582
22812,578
22814,568
22816,556
22818,538
22820,515
22822,502
22824,482
22826,463
22828,451
22830,432
22832,415
22834,401
22836,387
22838,373
22840,357
22842,344
22845,337
22847,324
22849,310
22851,297
22853,284
22855,274
22857,270
22859,261
22861,250
22863,240
22865,232
22867,225
22869,219
22871,212
22873,369
22875,618
22877,680
22879,714
22881,721
22883,732
22885,735
22887,737
22889,729
22891,707
22893,692
22895,697
22897,677
22899,647
22901,806
22903,931
22905,931
22907,931
22909,931
22911,932
22913,931
22915,931
22917,931
22919,932
22921,931
22923,932
22925,931
22927,931
22930,931
22932,931
22934,931
22936,931
22938,931
22940,931
22942,931
22944,931
22946,931
22948,931
22950,915
22952,873
22954,837
22956,802
22958,768
22960,735
22962,703
22964,685
22966,757
22968,868
22970,871
22973,872
22975,867
22977,844
22979,816
22981,798
22983,783
22985,762
22987,737
22989,707
22991,683
22993,656
22995,633
22997,608
22999,588
23001,565
23003,542
23005,521
23007,499
23009,481
23011,463
23013,449
23015,443
23017,424
23019,406
23021,400
23023,392
23025,380
23027,365
23029,578
23031,600
23033,624
23035,633
23037,630
23039,624
23041,616
23043,593
23045,569
23047,553
23049,533
23051,513
23053,493
23055,476
23058,464
23060,449
23062,445
23064,442
23066,431
23068,421
23070,403
23072,387
23074,379
23076,373
23078,360
23080,346
23082,334
23084,326
23086,321
23088,320
23090,320
23092,313
23094,302
23096,296
23098,289
23101,280
23103,272
23105,264
23107,255
23109,247
23111,237
23113,229
23115,231
23117,223
23119,217
23121,228
23123,229
23125,228
23127,226
23129,220
23131,214
23133,205
23135,196
23137,188
23139,181
23141,173
23143,169
23145,163
23147,159
23149,160
23151,158
23153,155
23155,156
23157,157
23159,160
23161,154
23163,151
23165,152
23167,167
23169,176
23171,176
23173,172
23175,168
23177,174
23179,181
23181,177
23183,173
23186,169
23188,168
23190,196
23192,232
23194,237
23196,283
23198,325
23200,325
23202,345
23204,365
23206,384
23208,380
23210,396
23212,426
23214,422
23216,445
23218,460
23220,449
23222,467
23224,478
23226,488
23229,538
23231,568
23233,585
23235,675
23237,741
23239,728
23241,719
23243,696
23245,673
23247,689
23249,754
23251,790
23253,776
23255,803
23257,839
23259,834
23261,843
23263,911
23265,926
23267,931
23269,931
23271,931
23273,931
23275,931
23277,931
23279,931
23281,931
23283,931
23285,931
23287,932
23289,931
23291,932
23293,932
23295,931
23297,931
23299,932
23301,932
23303,931
23305,931
23307,932
23309,931
