Timestamp (ms),EMG Value
0,22
2,21
4,21
6,21
8,20
10,20
12,20
14,20
16,19
18,19
20,19
22,20
24,20
26,20
28,20
30,20
32,20
34,20
36,20
38,19
40,19
42,19
44,19
46,19
48,18
50,18
52,19
54,20
56,22
58,22
61,23
63,23
65,22
67,22
69,22
71,21
73,21
75,21
77,21
79,20
81,20
83,20
85,20
87,19
89,19
91,19
93,19
95,19
97,18
99,18
101,18
103,18
105,18
107,18
109,18
111,18
113,17
115,17
117,17
119,17
121,17
123,17
125,17
127,17
129,17
131,17
133,17
135,17
137,17
139,17
141,17
143,17
146,16
148,16
150,16
152,16
154,16
156,16
158,18
160,18
162,19
164,19
166,18
168,18
170,18
172,18
174,18
176,18
178,18
180,18
182,18
184,18
186,18
189,18
191,18
193,17
195,17
197,17
199,17
201,17
203,17
205,17
207,18
209,18
211,19
213,19
215,19
217,18
219,18
221,18
223,18
225,18
227,18
229,18
231,18
233,18
235,17
237,17
239,17
241,17
243,17
245,18
247,18
249,18
251,17
253,17
255,17
257,17
259,17
261,18
263,18
265,17
267,17
269,17
271,17
274,17
276,17
278,17
280,16
282,16
284,16
286,16
288,16
290,16
292,16
294,17
296,16
298,16
300,16
302,16
304,16
306,16
308,16
310,16
312,16
314,16
317,16
319,16
321,16
323,16
325,16
327,15
329,16
331,16
333,15
335,15
337,15
339,15
341,15
343,15
345,15
347,15
349,15
351,15
353,15
355,15
357,15
359,15
361,15
363,19
365,21
367,21
369,22
371,22
373,22
375,22
377,22
379,22
381,21
383,21
385,21
387,21
389,20
391,20
393,20
395,20
397,20
399,20
402,19
404,19
406,19
408,19
410,18
412,18
414,18
416,18
418,18
420,18
422,18
424,17
426,17
428,17
430,17
432,17
434,17
436,17
438,17
440,16
442,16
445,16
447,17
449,17
451,17
453,17
455,17
457,18
459,18
461,18
463,19
465,20
467,20
469,19
471,19
473,19
475,20
477,20
479,20
481,20
483,19
485,19
487,19
489,19
491,19
493,19
495,19
497,19
499,18
501,18
503,18
505,18
507,18
509,17
511,17
513,17
515,17
517,17
519,17
521,17
523,17
525,18
527,18
530,18
532,18
534,18
536,18
538,18
540,17
542,17
544,17
546,17
548,17
550,17
552,17
554,17
556,17
558,17
560,17
562,17
564,17
566,17
568,17
570,17
573,17
575,17
577,17
579,17
581,17
583,16
585,16
587,16
589,16
591,16
593,17
595,17
597,17
599,17
601,17
603,17
605,17
607,17
609,17
611,17
613,17
615,17
617,17
619,17
621,16
623,17
625,17
627,17
629,17
631,17
633,19
635,19
637,19
639,19
641,19
643,19
645,19
647,22
649,22
651,22
653,23
655,24
658,23
660,23
662,23
664,22
666,22
668,23
670,23
672,23
674,23
676,23
678,23
680,22
682,22
684,21
686,21
688,21
690,21
692,20
694,20
696,20
698,20
701,20
703,20
705,21
707,21
709,21
711,21
713,20
715,20
717,20
719,20
721,20
723,20
725,19
727,19
729,19
731,19
733,19
735,19
737,19
739,18
741,18
743,18
745,18
747,18
749,18
751,18
753,18
755,18
757,19
759,19
761,19
763,19
765,18
767,18
769,18
771,18
773,20
775,21
777,21
779,21
781,21
783,21
786,21
788,20
790,20
792,20
794,20
796,20
798,20
800,20
802,19
804,19
806,19
808,19
810,20
812,19
814,19
816,19
818,19
820,20
822,20
824,20
826,21
829,21
831,21
833,21
835,21
837,21
839,22
841,22
843,22
845,22
847,22
849,22
851,23
853,23
855,22
857,23
859,22
861,22
863,22
865,22
867,22
869,21
871,21
873,21
875,22
877,22
879,22
881,25
883,25
885,26
887,28
889,29
891,31
893,31
895,30
897,31
899,32
901,32
903,31
905,30
907,29
909,29
911,28
914,28
916,27
918,28
920,31
922,32
924,32
926,31
928,31
930,30
932,29
934,29
936,30
938,29
940,28
942,28
944,29
946,31
948,30
950,29
952,29
954,29
957,29
959,28
961,29
963,28
965,29
967,32
969,37
971,36
973,36
975,38
977,40
979,40
981,41
983,42
985,44
987,43
989,43
991,44
993,43
995,46
997,45
999,46
1001,47
1003,47
1005,47
1007,46
1009,47
1011,49
1013,49
1015,48
1017,50
1019,55
1021,60
1023,63
1025,64
1027,62
1029,61
1031,60
1033,60
1035,58
1037,58
1039,59
1042,62
1044,74
1046,75
1048,73
1050,75
1052,87
1054,86
1056,90
1058,91
1060,96
1062,96
1064,96
1066,93
1068,92
1070,92
1072,97
1074,101
1076,101
1078,101
1080,100
1082,97
1085,94
1087,96
1089,97
1091,99
1093,100
1095,104
1097,105
1099,104
1101,100
1103,99
1105,99
1107,101
1109,98
1111,95
1113,97
1115,99
1117,100
1119,96
1121,93
1123,98
1125,98
1127,99
1129,96
1131,93
1133,90
1135,94
1137,96
1139,98
1141,98
1143,95
1145,93
1147,90
1149,89
1151,86
1153,84
1155,82
1157,80
1159,78
1161,75
1163,73
1165,72
1167,70
1170,71
1172,81
1174,88
1176,86
1178,90
1180,91
1182,88
1184,88
1186,91
1188,90
1190,100
1192,113
1194,114
1196,113
1198,109
1200,116
1202,131
1204,143
1206,141
1208,149
1210,166
1213,174
1215,170
1217,169
1219,168
1221,176
1223,199
1225,237
1227,252
1229,255
1231,273
1233,279
1235,288
1237,300
1239,299
1241,324
1243,352
1245,352
1247,394
1249,428
1251,421
1253,414
1255,413
1257,411
1259,411
1261,426
1263,433
1265,418
1267,405
1269,400
1271,389
1273,404
1275,440
1277,476
1279,495
1281,488
1283,500
1285,495
1287,488
1289,501
1291,529
1293,554
1295,539
1298,522
1300,505
1302,493
1304,489
1306,487
1308,481
1310,506
1312,537
1314,527
1316,517
1318,522
1320,556
1322,553
1324,573
1326,572
1328,549
1330,546
1332,559
1334,552
1336,588
1338,656
1341,668
1343,669
1345,674
1347,698
1349,739
1351,770
1353,761
1355,803
1357,821
1359,800
1361,788
1363,763
1365,766
1367,770
1369,756
1371,806
1373,867
1375,865
1377,902
1379,931
1381,930
1383,930
1385,931
1387,931
1389,931
1391,931
1393,931
1395,931
1397,931
1399,931
1401,931
1403,931
1405,931
1407,931
1409,931
1411,931
1413,931
1415,931
1417,931
1419,931
1421,931
1423,931
1426,931
1428,931
1430,931
1432,931
1434,931
1436,931
1438,929
1440,916
1442,931
1444,931
1446,931
1448,906
1450,877
1452,845
1454,826
1456,828
1458,889
1460,930
1462,925
1464,921
1466,925
1469,931
1471,931
1473,931
1475,931
1477,931
1479,931
1481,931
1483,931
1485,931
1487,931
1489,931
1491,931
1493,930
1495,927
1497,908
1499,869
1501,838
1503,897
1505,931
1507,931
1509,931
1511,931
1513,931
1515,931
1517,931
1519,931
1521,931
1523,931
1525,931
1527,931
1529,931
1531,931
1533,931
1535,931
1537,932
1539,931
1541,931
1543,931
1545,931
1547,931
1549,931
1551,931
1554,932
1556,931
1558,931
1560,931
1562,931
1564,931
1566,931
1568,931
1570,931
1572,931
1574,931
1576,931
1578,931
1580,931
1582,931
1584,931
1586,931
1588,931
1590,931
1592,931
1594,931
1597,931
1599,931
1601,931
1603,931
1605,931
1607,931
1609,931
1611,931
1613,931
1615,931
1617,931
1619,931
1621,931
1623,931
1625,931
1627,931
1629,930
1631,931
1633,931
1635,931
1637,931
1639,931
1641,931
1643,931
1645,931
1647,931
1649,931
1651,931
1653,931
1655,931
1657,931
1659,931
1661,931
1663,931
1665,931
1667,931
1669,931
1671,931
1673,931
1675,931
1677,931
1679,931
1682,931
1684,931
1686,931
1688,931
1690,931
1692,932
1694,931
1696,931
1698,931
1700,931
1702,931
1704,931
1706,931
1708,931
1710,931
1712,931
1714,931
1716,932
1718,931
1720,931
1722,932
1725,931
1727,931
1729,931
1731,931
1733,931
1735,931
1737,931
1739,931
1741,931
1743,931
1745,931
1747,932
1749,932
1751,931
1753,931
1755,932
1757,931
1759,931
1761,932
1763,932
1765,931
1767,931
1769,932
1771,932
1773,932
1775,932
1777,931
1779,931
1781,931
1783,931
1785,931
1787,932
1789,931
1791,931
1793,932
1795,932
1797,932
1799,931
1801,932
1803,931
1805,932
1807,931
1810,931
1812,931
1814,931
1816,931
1818,931
1820,931
1822,931
1824,932
1826,931
1828,931
1830,932
1832,931
1834,932
1836,932
1838,931
1840,931
1842,932
1844,932
1846,932
1848,931
1850,931
1853,931
1855,931
1857,931
1859,932
1861,931
1863,932
1865,932
1867,931
1869,931
1871,931
1873,932
1875,932
1877,932
1879,931
1881,931
1883,932
1885,931
1887,931
1889,932
1891,931
1893,931
1895,931
1897,931
1899,932
1901,932
1903,931
1905,931
1907,931
1909,931
1911,931
1913,931
1915,931
1917,932
1919,931
1921,931
1923,932
1925,932
1927,932
1929,931
1931,932
1933,931
1935,931
1938,931
1940,931
1942,931
1944,931
1946,931
1948,931
1950,931
1952,931
1954,931
1956,931
1958,931
1960,931
1962,932
1964,932
1966,931
1968,931
1970,931
1972,931
1974,932
1976,932
1978,931
1981,931
1983,931
1985,931
1987,931
1989,931
1991,931
1993,931
1995,931
1997,931
1999,931
2001,931
2003,931
2005,931
2007,931
2009,931
2011,931
2013,931
2015,931
2017,931
2019,931
2021,931
2023,931
2025,931
2027,931
2029,931
2031,931
2033,931
2035,931
2037,931
2039,912
2041,880
2043,908
2045,931
2047,931
2049,931
2051,931
2053,931
2055,926
2057,892
2059,872
2061,859
2063,835
2066,818
2068,794
2070,761
2072,731
2074,825
2076,855
2078,931
2080,931
2082,931
2084,918
2086,875
2088,842
2090,805
2092,770
2094,743
2096,717
2098,686
2100,664
2102,692
2104,690
2106,728
2109,733
2111,709
2113,699
2115,679
2117,662
2119,645
2121,649
2123,645
2125,648
2127,659
2129,637
2131,616
2133,593
2135,569
2137,557
2139,538
2141,518
2143,496
2145,478
2147,465
2149,453
2151,449
2153,442
2155,435
2157,419
2159,414
2161,448
2163,452
2165,478
2167,484
2169,478
2171,466
2173,485
2175,481
2177,474
2179,467
2181,454
2183,484
2185,495
2187,496
2189,505
2191,487
2194,477
2196,475
2198,463
2200,459
2202,479
2204,470
2206,455
2208,438
2210,425
2212,437
2214,462
2216,452
2218,470
2220,484
2222,484
2224,486
2226,482
2228,502
2230,527
2232,538
2234,550
2237,545
2239,555
2241,545
2243,531
2245,527
2247,518
2249,498
2251,484
2253,503
2255,517
2257,525
2259,518
2261,532
2263,520
2265,536
2267,546
2269,537
2271,530
2273,511
2275,509
2277,498
2279,488
2281,469
2283,455
2285,460
2287,456
2289,460
2291,446
2293,442
2295,453
2297,449
2299,463
2301,461
2303,473
2305,497
2307,487
2309,476
2311,466
2313,459
2315,449
2317,445
2319,444
2322,438
2324,419
2326,405
2328,471
2330,510
2332,505
2334,500
2336,548
2338,574
2340,586
2342,625
2344,628
2346,660
2348,672
2350,646
2352,622
2354,604
2356,604
2358,669
2360,673
2362,710
2365,733
2367,713
2369,715
2371,697
2373,682
2375,660
2377,656
2379,636
2381,632
2383,644
2385,620
2387,593
2389,590
2391,632
2393,642
2395,642
2397,654
2399,722
2401,728
2403,703
2405,681
2407,673
2409,648
2411,627
2413,602
2415,578
2417,555
2419,548
2421,581
2423,588
2425,584
2427,611
2429,636
2431,656
2433,633
2435,607
2437,583
2439,560
2441,545
2443,558
2445,586
2447,579
2450,609
2452,597
2454,579
2456,557
2458,553
2460,583
2462,573
2464,603
2466,631
2468,613
2470,666
2472,693
2474,712
2476,794
2478,801
2480,808
2482,777
2484,749
2486,734
2488,701
2490,678
2493,665
2495,640
2497,622
2499,598
2501,575
2503,554
2505,538
2507,516
2509,494
2511,479
2513,486
2515,475
2517,468
2519,457
2521,462
2523,484
2525,478
2527,471
2529,487
2531,507
2533,497
2535,508
2537,534
2539,530
2541,611
2543,633
2545,684
2547,791
2549,802
2551,783
2553,749
2555,720
2557,690
2559,661
2561,637
2563,615
2565,598
2567,579
2569,563
2571,556
2573,551
2575,531
2578,528
2580,519
2582,502
2584,488
2586,470
2588,458
2590,474
2592,499
2594,535
2596,529
2598,570
2600,629
2602,645
2604,622
2606,610
2608,591
2610,580
2612,584
2614,568
2616,551
2618,548
2621,551
2623,537
2625,519
2627,515
2629,508
2631,496
2633,478
2635,460
2637,443
2639,427
2641,411
2643,396
2645,381
2647,366
2649,353
2651,366
2653,410
2655,428
2657,441
2659,497
2661,513
2663,503
2665,483
2667,467
2669,458
2671,479
2673,502
2675,520
2677,527
2679,527
2681,563
2683,592
2685,585
2687,590
2689,586
2691,627
2693,638
2695,617
2697,598
2699,582
2701,574
2703,558
2706,536
2708,519
2710,498
2712,480
2714,464
2716,448
2718,431
2720,415
2722,398
2724,381
2726,367
2728,358
2730,355
2732,345
2734,331
2736,329
2738,338
2740,335
2742,352
2744,382
2746,389
2749,380
2751,373
2753,370
2755,366
2757,354
2759,347
2761,346
2763,335
2765,323
2767,312
2769,301
2771,290
2773,282
2775,272
2777,261
2779,251
2781,240
2783,230
2785,220
2787,211
2789,202
2791,197
2793,194
2795,197
2797,200
2799,195
2801,201
2803,206
2805,203
2807,195
2809,187
2811,179
2813,174
2815,174
2817,188
2819,208
2821,206
2823,221
2825,241
2827,252
2829,248
2831,238
2834,229
2836,220
2838,212
2840,205
2842,196
2844,188
2846,181
2848,177
2850,170
2852,165
2854,158
2856,153
2858,147
2860,142
2862,137
2864,134
2866,130
2868,128
2870,124
2872,119
2874,115
2877,111
2879,106
2881,104
2883,101
2885,97
2887,95
2889,92
2891,89
2893,87
2895,85
2897,82
2899,80
2901,77
2903,75
2905,75
2907,75
2909,78
2911,79
2913,77
2915,75
2917,73
2919,71
2921,69
2923,70
2925,68
2927,67
2929,70
2931,69
2933,75
2935,76
2937,77
2939,77
2941,76
2943,74
2945,72
2947,70
2949,68
2951,66
2953,64
2955,65
2957,63
2959,61
2962,59
2964,59
2966,61
2968,64
2970,65
2972,64
2974,63
2976,62
2978,67
2980,71
2982,69
2984,71
2986,69
2988,74
2990,80
2992,80
2994,78
2996,82
2998,84
3000,85
3002,92
3005,95
3007,94
3009,92
3011,91
3013,89
3015,91
3017,97
3019,95
3021,91
3023,92
3025,95
3027,107
3029,107
3031,105
3033,104
3035,102
3037,99
3039,100
3041,97
3043,94
3045,94
3047,102
3049,107
3051,107
3053,103
3055,101
3057,112
3059,115
3061,111
3063,111
3065,115
3067,114
3069,115
3071,114
3073,113
3075,112
3077,117
3079,119
3081,127
3083,133
3085,135
3087,132
3090,132
3092,132
3094,128
3096,124
3098,127
3100,123
3102,122
3104,120
3106,116
3108,122
3110,125
3112,132
3114,136
3116,132
3118,128
3120,127
3122,127
3124,125
3126,128
3128,126
3130,133
3133,144
3135,144
3137,148
3139,149
3141,153
3143,150
3145,147
3147,148
3149,150
3151,149
3153,146
3155,143
3157,140
3159,140
3161,137
3163,138
3165,134
3167,128
3169,123
3171,118
3173,114
3175,112
3177,109
3179,106
3181,111
3183,114
3185,126
3187,128
3189,132
3191,131
3193,126
3195,121
3197,122
3199,118
3201,116
3203,116
3205,115
3207,115
3209,111
3211,107
3213,103
3215,99
3218,97
3220,94
3222,91
3224,87
3226,84
3228,81
3230,80
3232,80
3234,78
3236,78
3238,78
3240,76
3242,74
3244,72
3246,71
3248,71
3250,70
3252,70
3254,68
3256,67
3258,66
3261,77
3263,88
3265,89
3267,104
3269,117
3271,117
3273,123
3275,129
3277,126
3279,125
3281,146
3283,196
3285,221
3287,245
3289,303
3291,330
3293,330
3295,324
3297,314
3299,309
3301,340
3303,361
3305,393
3307,390
3309,414
3311,435
3313,450
3315,438
3317,432
3319,418
3321,404
3323,404
3325,428
3327,424
3329,440
3331,452
3333,448
3335,446
3337,429
3339,419
3341,409
3343,399
3346,385
3348,372
3350,360
3352,356
3354,354
3356,381
3358,394
3360,389
3362,393
3364,383
3366,384
3368,390
3370,384
3372,391
3374,386
3376,405
3378,397
3380,386
3382,379
3384,368
3386,388
3389,416
3391,432
3393,424
3395,408
3397,400
3399,448
3401,504
3403,507
3405,578
3407,681
3409,696
3411,795
3413,871
3415,854
3417,841
3419,827
3421,848
3423,860
3425,835
3427,809
3429,810
3431,814
3433,842
3435,899
3437,931
3439,931
3441,930
3443,931
3445,931
3447,931
3449,931
3451,931
3453,931
3455,931
3457,931
3459,931
3461,931
3463,931
3465,931
3467,931
3469,931
3471,931
3474,931
3476,931
3478,931
3480,931
3482,931
3484,931
3486,931
3488,931
3490,931
3492,931
3494,931
3496,931
3498,931
3500,931
3502,931
3504,931
3506,931
3508,931
3510,931
3512,931
3514,931
3517,931
3519,931
3521,931
3523,931
3525,931
3527,931
3529,931
3531,931
3533,931
3535,931
3537,931
3539,931
3541,931
3543,931
3545,931
3547,931
3549,931
3551,931
3553,931
3555,931
3557,931
3559,931
3561,931
3563,931
3565,931
3567,931
3569,931
3571,931
3573,931
3575,931
3577,931
3579,931
3581,931
3583,931
3585,931
3587,931
3589,931
3591,931
3593,931
3595,931
3597,931
3599,931
3602,931
3604,931
3606,931
3608,931
3610,931
3612,931
3614,931
3616,931
3618,931
3620,931
3622,931
3624,931
3626,931
3628,931
3630,931
3632,931
3634,931
3636,931
3638,931
3640,931
3642,931
3645,931
3647,931
3649,931
3651,931
3653,931
3655,931
3657,931
3659,931
3661,931
3663,931
3665,931
3667,931
3669,931
3671,931
3673,931
3675,931
3677,931
3679,931
3681,931
3683,931
3685,931
3687,931
3689,931
3691,931
3693,931
3695,931
3697,931
3699,931
3701,931
3703,931
3705,931
3707,931
3709,931
3711,931
3713,931
3715,932
3717,931
3719,931
3721,931
3723,931
3725,931
3727,931
3730,931
3732,931
3734,931
3736,931
3738,931
3740,931
3742,931
3744,931
3746,931
3748,931
3750,931
3752,931
3754,931
3756,932
3758,931
3760,931
3762,931
3764,931
3766,931
3768,931
3770,931
3773,931
3775,932
3777,931
3779,931
3781,931
3783,931
3785,932
3787,931
3789,931
3791,931
3793,931
3795,931
3797,931
3799,931
3801,931
3803,931
3805,931
3807,931
3809,931
3811,931
3813,931
3815,931
3817,931
3819,931
3821,931
3823,931
3825,931
3827,931
3829,931
3831,931
3833,932
3835,931
3837,931
3839,931
3841,931
3843,932
3845,931
3847,931
3849,931
3851,931
3853,931
3855,931
3858,931
3860,931
3862,931
3864,931
3866,931
3868,932
3870,931
3872,931
3874,932
3876,931
3878,931
3880,931
3882,931
3884,931
3886,931
3888,931
3890,931
3892,931
3894,931
3896,932
3898,932
3901,932
3903,932
3905,931
3907,931
3909,932
3911,931
3913,932
3915,932
3917,932
3919,931
3921,931
3923,931
3925,931
3927,931
3929,931
3931,931
3933,931
3935,931
3937,931
3939,931
3941,931
3943,931
3945,931
3947,932
3949,932
3951,931
3953,931
3955,932
3957,931
3959,931
3961,931
3963,932
3965,931
3967,931
3969,932
3971,931
3973,931
3975,931
3977,931
3979,931
3981,931
3983,931
3986,931
3988,931
3990,931
3992,931
3994,931
3996,931
3998,931
4000,931
4002,931
4004,931
4006,931
4008,931
4010,931
4012,931
4014,931
4016,931
4018,931
4020,931
4022,931
4024,931
4026,931
4029,931
4031,931
4033,931
4035,931
4037,931
4039,931
4041,931
4043,931
4045,931
4047,931
4049,931
4051,931
4053,931
4055,931
4057,931
4059,930
4061,924
4063,904
4065,912
4067,931
4069,931
4071,931
4073,931
4075,931
4077,931
4079,931
4081,931
4083,931
4085,931
4087,931
4089,931
4091,931
4093,931
4095,929
4097,887
4099,860
4101,833
4103,846
4105,857
4107,833
4109,836
4111,824
4114,813
4116,840
4118,834
4120,868
4122,850
4124,836
4126,821
4128,826
4130,835
4132,820
4134,789
4136,755
4138,721
4140,691
4142,663
4144,639
4146,613
4148,591
4150,569
4152,547
4154,523
4157,499
4159,481
4161,470
4163,452
4165,449
4167,468
4169,478
4171,515
4173,509
4175,496
4177,527
4179,563
4181,576
4183,603
4185,580
4187,563
4189,563
4191,554
4193,556
4195,544
4197,523
4199,512
4201,489
4203,470
4205,452
4207,434
4209,417
4211,402
4213,391
4215,377
4217,371
4219,373
4221,382
4223,389
4225,424
4227,426
4229,425
4231,439
4233,438
4235,424
4237,415
4239,405
4242,392
4244,384
4246,402
4248,444
4250,460
4252,505
4254,496
4256,499
4258,483
4260,490
4262,478
4264,458
4266,440
4268,431
4270,423
4272,423
4274,419
4276,449
4278,504
4280,516
4282,588
4285,603
4287,600
4289,575
4291,550
4293,545
4295,529
4297,520
4299,510
4301,495
4303,479
4305,461
4307,448
4309,437
4311,440
4313,433
4315,420
4317,433
4319,447
4321,450
4323,442
4325,432
4327,424
4329,538
4331,537
4333,518
4335,511
4337,495
4339,480
4341,501
4343,514
4345,545
4347,553
4349,602
4351,594
4353,582
4355,559
4357,536
4359,529
4361,535
4363,535
4365,532
4367,563
4370,582
4372,591
4374,656
4376,666
4378,664
4380,639
4382,643
4384,663
4386,659
4388,675
4390,680
4392,679
4394,680
4396,689
4398,666
4400,636
4402,610
4404,585
4406,594
4408,581
4410,567
4413,544
4415,535
4417,539
4419,532
4421,524
4423,532
4425,523
4427,528
4429,530
4431,516
4433,523
4435,512
4437,526
4439,540
4441,583
4443,582
4445,602
4447,669
4449,696
4451,694
4453,672
4455,661
4457,641
4459,625
4461,611
4463,595
4465,592
4467,578
4469,579
4471,583
4473,569
4475,578
4477,595
4479,587
4481,583
4483,590
4485,596
4487,578
4489,560
4491,578
4493,565
4495,576
4498,573
4500,578
4502,570
4504,590
4506,612
4508,627
4510,686
4512,699
4514,700
4516,713
4518,743
4520,787
4522,771
4524,765
4526,736
4528,711
4530,687
4532,657
4534,627
4536,600
4538,577
4541,556
4543,537
4545,517
4547,499
4549,482
4551,474
4553,477
4555,470
4557,460
4559,461
4561,454
4563,453
4565,505
4567,558
4569,580
4571,652
4573,667
4575,653
4577,635
4579,627
4581,612
4583,600
4585,588
4587,570
4589,554
4591,543
4593,531
4595,509
4597,494
4599,486
4601,468
4603,460
4605,453
4607,435
4609,417
4611,401
4613,386
4615,374
4617,365
4619,360
4621,354
4623,352
4626,358
4628,346
4630,343
4632,339
4634,344
4636,389
4638,414
4640,463
4642,495
4644,480
4646,491
4648,485
4650,485
4652,485
4654,505
4656,527
4658,526
4660,505
4662,491
4664,483
4666,466
4669,462
4671,453
4673,437
4675,426
4677,415
4679,405
4681,394
4683,381
4685,365
4687,349
4689,339
4691,334
4693,326
4695,315
4697,311
4699,326
4701,325
4703,343
4705,350
4707,360
4709,377
4711,375
4713,369
4715,371
4717,377
4719,381
4721,370
4723,377
4725,382
4727,371
4729,361
4731,354
4733,360
4735,393
4737,402
4739,420
4741,471
4743,469
4745,455
4747,435
4749,417
4751,399
4754,385
4756,375
4758,365
4760,354
4762,343
4764,331
4766,322
4768,339
4770,356
4772,351
4774,374
4776,390
4778,382
4780,373
4782,391
4784,444
4786,485
4788,486
4790,550
4792,614
4794,609
4797,588
4799,563
4801,542
4803,521
4805,502
4807,485
4809,471
4811,467
4813,458
4815,441
4817,434
4819,426
4821,410
4823,393
4825,377
4827,360
4829,345
4831,330
4833,317
4835,306
4837,322
4839,332
4841,334
4843,337
4845,365
4847,375
4849,361
4851,348
4853,337
4855,326
4857,317
4859,327
4861,347
4863,343
4865,350
4867,366
4869,374
4871,375
4873,363
4875,348
4877,333
4879,319
4882,310
4884,310
4886,324
4888,326
4890,324
4892,340
4894,341
4896,329
4898,316
4900,303
4902,291
4904,280
4906,268
4908,257
4910,246
4912,235
4914,225
4916,216
4918,207
4920,198
4922,190
4925,182
4927,175
4929,168
4931,161
4933,154
4935,149
4937,143
4939,138
4941,133
4943,127
4945,123
4947,118
4949,113
4951,109
4953,105
4955,101
4957,98
4959,95
4961,91
4963,88
4965,84
4967,83
4969,80
4971,78
4973,75
4975,74
4977,71
4979,69
4981,66
4983,64
4985,62
4987,60
4989,60
4991,59
4993,57
4995,56
4997,56
4999,55
5001,53
5003,52
5005,51
5007,50
5010,52
5012,54
5014,53
5016,52
5018,52
5020,54
5022,54
5024,54
5026,53
5028,53
5030,51
5032,51
5034,53
5036,52
5038,53
5040,55
5042,54
5044,55
5046,55
5048,54
5050,52
5053,51
5055,50
5057,48
5059,49
5061,48
5063,50
5065,50
5067,54
5069,54
5071,52
5073,50
5075,49
5077,50
5079,50
5081,51
5083,50
5085,50
5087,49
5089,49
5091,48
5093,47
5095,47
5097,47
5099,45
5101,44
5103,43
5105,42
5107,47
5109,46
5111,50
5113,50
5115,49
5117,47
5119,46
5121,46
5123,49
5125,50
5127,53
5129,53
5131,52
5133,57
5135,58
5138,57
5140,56
5142,56
5144,60
5146,72
5148,76
5150,83
5152,83
5154,82
5156,83
5158,86
5160,83
5162,82
5164,80
5166,78
5168,80
5170,81
5172,88
5174,92
5176,92
5178,89
5181,87
5183,86
5185,84
5187,89
5189,92
5191,91
5193,89
5195,94
5197,92
5199,91
5201,92
5203,93
5205,99
5207,100
5209,98
5211,99
5213,104
5215,107
5217,105
5219,102
5221,99
5223,97
5225,98
5227,103
5229,110
5231,113
5233,117
5235,117
5237,115
5239,121
5241,123
5243,124
5245,119
5247,115
5249,111
5251,107
5253,102
5255,98
5257,95
5259,91
5261,88
5263,84
5266,81
5268,78
5270,75
5272,72
5274,70
5276,67
5278,65
5280,63
5282,60
5284,58
5286,56
5288,54
5290,53
5292,51
5294,49
5296,48
5298,46
5300,45
5302,43
5304,42
5306,41
5309,39
5311,38
5313,37
5315,37
5317,37
5319,36
5321,35
5323,35
5325,39
5327,45
5329,49
5331,57
5333,68
5335,70
5337,81
5339,96
5341,96
5343,93
5345,99
5347,103
5349,108
5351,113
5353,116
5355,114
5357,117
5359,150
5361,182
5363,188
5365,194
5367,211
5369,235
5371,273
5373,302
5375,296
5377,285
5379,275
5381,274
5383,295
5385,315
5387,318
5389,317
5391,315
5394,325
5396,341
5398,344
5400,361
5402,358
5404,349
5406,340
5408,327
5410,337
5412,352
5414,342
5416,332
5418,327
5420,327
5422,347
5424,341
5426,328
5428,322
5430,343
5432,390
5434,425
5437,419
5439,409
5441,398
5443,384
5445,367
5447,355
5449,355
5451,350
5453,336
5455,331
5457,336
5459,327
5461,321
5463,332
5465,337
5467,329
5469,324
5471,347
5473,361
5475,379
5477,437
5479,455
5481,453
5483,460
5485,487
5487,493
5489,473
5491,459
5493,457
5495,470
5497,488
5499,503
5501,560
5503,595
5505,587
5507,586
5509,567
5511,560
5513,603
5515,645
5517,636
5519,643
5522,636
5524,674
5526,679
5528,666
5530,711
5532,746
5534,727
5536,713
5538,692
5540,673
5542,673
5544,690
5546,725
5548,729
5550,816
5552,839
5554,808
5556,788
5558,763
5560,762
5562,750
5565,720
5567,701
5569,673
5571,659
5573,674
5575,702
5577,698
5579,685
5581,673
5583,682
5585,675
5587,655
5589,650
5591,649
5593,635
5595,691
5597,802
5599,867
5601,873
5603,931
5605,931
5607,931
5609,931
5611,931
5613,931
5615,931
5617,931
5619,931
5621,931
5623,931
5625,931
5627,931
5629,931
5631,931
5633,931
5635,931
5637,931
5639,931
5641,931
5643,931
5645,931
5647,931
5650,931
5652,931
5654,931
5656,931
5658,931
5660,931
5662,931
5664,931
5666,931
5668,931
5670,931
5672,931
5674,931
5676,931
5678,931
5680,931
5682,931
5684,931
5686,931
5688,931
5690,931
5693,931
5695,931
5697,931
5699,931
5701,931
5703,931
5705,931
5707,931
5709,931
5711,931
5713,931
5715,931
5717,931
5719,931
5721,931
5723,931
5725,931
5727,931
5729,931
5731,931
5733,931
5735,931
5737,931
5739,931
5741,931
5743,931
5745,931
5747,931
5749,931
5751,931
5753,931
5755,931
5757,931
5759,931
5761,931
5763,931
5765,931
5767,931
5769,931
5771,931
5773,931
5775,931
5778,931
5780,931
5782,931
5784,931
5786,931
5788,931
5790,931
5792,931
5794,931
5796,931
5798,931
5800,931
5802,931
5804,931
5806,931
5808,931
5810,931
5812,931
5814,931
5816,931
5818,931
5821,931
5823,931
5825,931
5827,932
5829,931
5831,931
5833,932
5835,931
5837,931
5839,931
5841,931
5843,931
5845,931
5847,931
5849,931
5851,931
5853,931
5855,931
5857,931
5859,931
5861,931
5863,931
5865,931
5867,931
5869,931
5871,931
5873,931
5875,931
5877,931
5879,931
5881,931
5883,931
5885,931
5887,931
5889,931
5891,931
5893,931
5895,931
5897,931
5899,931
5901,931
5903,931
5906,931
5908,931
5910,931
5912,931
5914,931
5916,931
5918,931
5920,931
5922,932
5924,931
5926,931
5928,931
5930,931
5932,931
5934,931
5936,932
5938,932
5940,931
5942,931
5944,931
5946,932
5949,931
5951,932
5953,931
5955,932
5957,931
5959,931
5961,931
5963,931
5965,932
5967,931
5969,931
5971,931
5973,931
5975,931
5977,931
5979,931
5981,931
5983,931
5985,932
5987,931
5989,931
5991,931
5993,931
5995,931
5997,931
5999,931
6001,931
6003,931
6005,931
6007,931
6009,931
6011,931
6013,931
6015,931
6017,931
6019,931
6021,931
6023,931
6025,931
6027,931
6029,931
6031,931
6034,931
6036,931
6038,931
6040,931
6042,931
6044,931
6046,931
6048,931
6050,931
6052,931
6054,931
6056,931
6058,931
6060,931
6062,931
6064,931
6066,931
6068,931
6070,931
6072,931
6074,931
6077,931
6079,931
6081,931
6083,931
6085,931
6087,931
6089,931
6091,931
6093,931
6095,931
6097,931
6099,931
6101,931
6103,931
6105,932
6107,931
6109,931
6111,931
6113,931
6115,932
6117,932
6119,931
6121,931
6123,931
6125,931
6127,931
6129,931
6131,931
6133,931
6135,931
6137,931
6139,931
6141,931
6143,931
6145,931
6147,931
6149,931
6151,931
6153,931
6155,931
6157,931
6159,931
6162,931
6164,931
6166,931
6168,931
6170,931
6172,931
6174,931
6176,931
6178,931
6180,931
6182,931
6184,931
6186,931
6188,931
6190,931
6192,931
6194,931
6196,931
6198,931
6200,931
6202,931
6205,931
6207,930
6209,891
6211,854
6213,824
6215,793
6217,768
6219,736
6221,704
6223,680
6225,652
6227,630
6229,606
6231,602
6233,593
6235,599
6237,595
6239,601
6241,583
6243,601
6245,626
6247,618
6249,611
6251,592
6253,571
6255,552
6257,528
6259,508
6261,498
6263,493
6265,481
6267,523
6269,550
6271,625
6273,632
6275,638
6277,625
6279,598
6281,574
6283,554
6285,535
6287,546
6290,537
6292,564
6294,559
6296,534
6298,511
6300,489
6302,471
6304,450
6306,433
6308,439
6310,453
6312,439
6314,458
6316,472
6318,505
6320,504
6322,524
6324,509
6326,523
6328,515
6330,501
6333,480
6335,479
6337,520
6339,549
6341,562
6343,603
6345,603
6347,609
6349,601
6351,604
6353,608
6355,669
6357,682
6359,742
6361,738
6363,752
6365,771
6367,758
6369,754
6371,723
6373,696
6375,684
6377,654
6379,638
6381,641
6383,624
6385,636
6387,640
6389,642
6391,642
6393,627
6395,615
6397,595
6399,577
6401,613
6403,623
6405,658
6407,699
6409,714
6411,784
6413,784
6415,788
6418,771
6420,785
6422,779
6424,755
6426,729
6428,708
6430,681
6432,681
6434,660
6436,658
6438,639
6440,627
6442,607
6444,585
6446,569
6448,543
6450,523
6452,517
6454,505
6456,498
6458,497
6461,531
6463,546
6465,564
6467,580
6469,593
6471,632
6473,638
6475,672
6477,714
6479,721
6481,761
6483,762
6485,832
6487,827
6489,821
6491,796
6493,761
6495,737
6497,746
6499,737
6501,735
6503,735
6505,715
6507,685
6509,655
6511,628
6513,605
6515,585
6517,564
6519,541
6521,543
6523,613
6525,634
6527,715
6529,765
6531,748
6533,725
6535,695
6537,692
6539,713
6541,698
6543,701
6546,731
6548,740
6550,730
6552,705
6554,685
6556,670
6558,656
6560,655
6562,660
6564,649
6566,704
6568,700
6570,728
6572,774
6574,775
6576,783
6578,753
6580,722
6582,692
6584,664
6586,639
6589,617
6591,597
6593,578
6595,564
6597,549
6599,529
6601,506
6603,486
6605,472
6607,459
6609,486
6611,496
6613,502
6615,508
6617,522
6619,541
6621,608
6623,608
6625,603
6627,586
6629,583
6631,581
6633,566
6635,550
6637,533
6639,523
6641,513
6643,499
6645,505
6647,514
6649,502
6651,494
6653,480
6655,463
6657,448
6659,430
6661,417
6663,406
6665,413
6667,452
6669,454
6671,486
6674,524
6676,532
6678,564
6680,555
6682,596
6684,632
6686,616
6688,639
6690,695
6692,688
6694,708
6696,705
6698,725
6700,732
6702,782
6704,776
6706,746
6708,716
6710,689
6712,663
6714,648
6717,627
6719,605
6721,586
6723,568
6725,580
6727,612
6729,605
6731,641
6733,667
6735,652
6737,628
6739,604
6741,591
6743,647
6745,696
6747,694
6749,766
6751,805
6753,780
6755,752
6757,772
6759,795
6761,805
6763,788
6765,796
6767,776
6769,773
6771,784
6773,763
6775,801
6777,882
6779,881
6781,848
6783,825
6785,829
6787,827
6789,799
6791,793
6793,768
6795,742
6797,711
6799,681
6802,655
6804,632
6806,635
6808,661
6810,657
6812,651
6814,670
6816,656
6818,636
6820,640
6822,630
6824,624
6826,630
6828,617
6830,643
6832,680
6834,670
6836,716
6838,749
6840,737
6842,717
6845,689
6847,667
6849,652
6851,628
6853,614
6855,612
6857,599
6859,587
6861,590
6863,571
6865,574
6867,598
6869,600
6871,604
6873,651
6875,652
6877,634
6879,611
6881,588
6883,575
6885,575
6887,577
6889,571
6891,552
6893,543
6895,527
6897,525
6899,510
6901,502
6903,491
6905,472
6907,452
6909,435
6911,420
6913,409
6915,396
6917,405
6919,421
6921,414
6923,396
6925,379
6927,375
6930,428
6932,463
6934,462
6936,503
6938,529
6940,520
6942,503
6944,483
6946,463
6948,446
6950,431
6952,418
6954,405
6956,391
6958,376
6960,368
6962,370
6964,378
6966,373
6968,370
6970,385
6973,396
6975,388
6977,371
6979,357
6981,344
6983,342
6985,369
6987,411
6989,414
6991,440
6993,485
6995,496
6997,487
6999,468
7001,449
7003,432
7005,419
7007,405
7009,391
7011,378
7013,364
7015,357
7017,343
7019,328
7021,314
7023,301
7025,288
7027,276
7029,265
7031,255
7033,245
7035,235
7037,227
7039,217
7041,208
7043,203
7045,196
7047,190
7049,182
7051,176
7053,169
7055,165
7058,161
7060,156
7062,149
7064,144
7066,140
7068,135
7070,132
7072,133
7074,129
7076,125
7078,120
7080,115
7082,111
7084,107
7086,103
7088,101
7090,101
7092,97
7094,94
7096,90
7098,89
7101,88
7103,89
7105,92
7107,91
7109,91
7111,89
7113,88
7115,86
7117,83
7119,81
7121,78
7123,75
7125,72
7127,71
7129,71
7131,70
7133,70
7135,76
7137,78
7139,79
7141,77
7143,76
7145,84
7147,87
7149,89
7151,86
7153,84
7155,84
7157,85
7159,85
7161,94
7163,92
7165,92
7167,96
7169,95
7171,98
7173,109
7175,112
7177,134
7179,139
7181,140
7183,138
7186,135
7188,131
7190,140
7192,138
7194,148
7196,155
7198,155
7200,157
7202,154
7204,154
7206,151
7208,156
7210,159
7212,157
7214,173
7216,179
7218,199
7220,206
7222,203
7224,197
7226,192
7229,188
7231,184
7233,190
7235,188
7237,194
7239,187
7241,182
7243,180
7245,175
7247,175
7249,180
7251,179
7253,187
7255,187
7257,187
7259,181
7261,181
7263,178
7265,179
7267,181
7269,182
7271,179
7273,182
7275,186
7277,192
7279,206
7281,213
7283,214
7285,218
7287,215
7289,209
7291,205
7293,200
7295,203
7297,195
7299,189
7301,182
7303,177
7305,174
7307,174
7309,174
7311,174
7314,172
7316,172
7318,174
7320,168
7322,170
7324,168
7326,168
7328,168
7330,167
7332,162
7334,156
7336,154
7338,148
7340,148
7342,150
7344,149
7346,153
7348,150
7350,148
7352,151
7354,151
7357,155
7359,157
7361,154
7363,152
7365,157
7367,157
7369,153
7371,150
7373,149
7375,154
7377,157
7379,154
7381,164
7383,163
7385,161
7387,155
7389,149
7391,153
7393,151
7395,155
7397,153
7399,150
7401,144
7403,138
7405,132
7407,129
7409,125
7411,122
7413,120
7415,115
7417,112
7419,108
7421,107
7423,103
7425,100
7427,99
7429,98
7431,97
7433,94
7435,90
7437,87
7439,84
7442,81
7444,78
7446,75
7448,73
7450,72
7452,70
7454,68
7456,67
7458,65
7460,64
7462,62
7464,61
7466,61
7468,59
7470,57
7472,55
7474,56
7476,55
7478,62
7480,82
7482,95
7485,96
7487,102
7489,109
7491,111
7493,112
7495,113
7497,120
7499,138
7501,140
7503,156
7505,161
7507,172
7509,176
7511,182
7513,200
7515,204
7517,207
7519,202
7521,203
7523,198
7525,192
7527,193
7529,218
7531,243
7533,241
7535,240
7537,238
7539,239
7541,240
7543,259
7545,263
7547,255
7549,247
7551,257
7553,261
7555,257
7557,255
7559,258
7561,262
7563,292
7565,298
7567,340
7570,343
7572,348
7574,342
7576,333
7578,374
7580,433
7582,431
7584,448
7586,444
7588,445
7590,459
7592,451
7594,475
7596,519
7598,531
7600,531
7602,573
7604,610
7606,598
7608,597
7610,623
7613,678
7615,710
7617,705
7619,749
7621,750
7623,798
7625,794
7627,826
7629,861
7631,844
7633,808
7635,774
7637,744
7639,719
7641,723
7643,708
7645,726
7647,741
7649,735
7651,745
7653,745
7655,752
7657,741
7659,711
7661,689
7663,671
7665,690
7667,689
7669,729
7671,724
7673,784
7675,863
7677,871
7679,894
7681,931
7683,931
7685,931
7687,931
7689,931
7691,931
7693,931
7695,931
7698,930
7700,918
7702,930
7704,931
7706,931
7708,931
7710,931
7712,931
7714,931
7716,931
7718,931
7720,931
7722,931
7724,931
7726,931
7728,931
7730,931
7732,931
7734,931
7736,931
7738,931
7741,931
7743,931
7745,931
7747,931
7749,931
7751,931
7753,931
7755,931
7757,931
7759,931
7761,931
7763,931
7765,931
7767,931
7769,931
7771,931
7773,931
7775,931
7777,931
7779,931
7781,931
7783,931
7785,931
7787,931
7789,931
7791,931
7793,931
7795,931
7797,931
7799,931
7801,931
7803,931
7805,931
7807,931
7809,931
7811,931
7813,931
7815,931
7817,931
7819,932
7821,931
7823,931
7826,931
7828,931
7830,931
7832,931
7834,931
7836,931
7838,932
7840,931
7842,931
7844,931
7846,931
7848,931
7850,931
7852,931
7854,931
7856,931
7858,931
7860,931
7862,931
7864,931
7866,931
7869,931
7871,931
7873,931
7875,931
7877,931
7879,931
7881,931
7883,931
7885,931
7887,931
7889,931
7891,931
7893,931
7895,931
7897,931
7899,931
7901,932
7903,931
7905,931
7907,931
7909,931
7911,931
7913,931
7915,931
7917,931
7919,931
7921,931
7923,932
7925,931
7927,931
7929,931
7931,931
7933,932
7935,931
7937,931
7939,932
7941,932
7943,931
7945,931
7947,931
7949,931
7951,931
7954,931
7956,931
7958,932
7960,931
7962,931
7964,932
7966,931
7968,931
7970,931
7972,931
7974,931
7976,931
7978,931
7980,931
7982,931
7984,931
7986,931
7988,931
7990,931
7992,931
7994,932
7997,931
7999,931
8001,931
8003,932
8005,931
8007,932
8009,931
8011,931
8013,931
8015,931
8017,931
8019,932
8021,932
8023,932
8025,931
8027,931
8029,931
8031,931
8033,931
8035,931
8037,931
8039,931
8041,932
8043,931
8045,932
8047,931
8049,931
8051,931
8053,932
8055,931
8057,931
8059,932
8061,931
8063,931
8065,931
8067,932
8069,931
8071,931
8073,932
8075,932
8077,932
8079,931
8082,931
8084,931
8086,931
8088,932
8090,932
8092,931
8094,931
8096,931
8098,932
8100,932
8102,931
8104,931
8106,932
8108,931
8110,931
8112,931
8114,932
8116,932
8118,931
8120,931
8122,932
8125,931
8127,931
8129,931
8131,931
8133,931
8135,931
8137,931
8139,932
8141,931
8143,931
8145,931
8147,931
8149,931
8151,931
8153,932
8155,931
8157,931
8159,931
8161,931
8163,931
8165,931
8167,931
8169,931
8171,931
8173,931
8175,931
8177,931
8179,931
8181,931
8183,931
8185,931
8187,931
8189,931
8191,931
8193,931
8195,931
8197,931
8199,931
8201,931
8203,931
8205,931
8207,931
8210,931
8212,931
8214,931
8216,931
8218,931
8220,931
8222,931
8224,931
8226,931
8228,931
8230,931
8232,931
8234,931
8236,931
8238,931
8240,931
8242,931
8244,931
8246,931
8248,931
8250,931
8253,931
8255,931
8257,931
8259,931
8261,931
8263,931
8265,931
8267,931
8269,931
8271,931
8273,931
8275,931
8277,931
8279,931
8281,931
8283,931
8285,931
8287,931
8289,931
8291,931
8293,931
8295,931
8297,931
8299,931
8301,931
8303,931
8305,931
8307,931
8309,931
8311,931
8313,931
8315,927
8317,910
8319,882
8321,885
8323,904
8325,930
8327,931
8329,931
8331,931
8333,931
8335,931
8338,931
8340,931
8342,931
8344,930
8346,930
8348,930
8350,931
8352,930
8354,892
8356,866
8358,841
8360,841
8362,825
8364,820
8366,784
8368,753
8370,726
8372,698
8374,702
8376,715
8378,733
8381,765
8383,742
8385,728
8387,714
8389,721
8391,704
8393,710
8395,688
8397,674
8399,649
8401,626
8403,598
8405,604
8407,614
8409,614
8411,623
8413,602
8415,584
8417,575
8419,567
8421,582
8423,575
8425,563
8427,559
8429,536
8431,521
8433,516
8435,500
8437,481
8439,521
8441,605
8443,606
8445,681
8447,726
8449,715
8451,705
8453,676
8455,654
8457,631
8459,606
8461,601
8463,582
8466,571
8468,556
8470,542
8472,524
8474,520
8476,503
8478,491
8480,499
8482,500
8484,516
8486,544
8488,541
8490,550
8492,534
8494,534
8496,527
8498,563
8500,566
8502,564
8504,542
8506,525
8509,513
8511,496
8513,556
8515,587
8517,658
8519,707
8521,682
8523,663
8525,640
8527,622
8529,624
8531,602
8533,581
8535,556
8537,531
8539,515
8541,517
8543,521
8545,522
8547,548
8549,598
8551,605
8553,616
8555,661
8557,647
8559,619
8561,596
8563,599
8565,656
8567,664
8569,728
8571,715
8573,691
8575,667
8577,650
8579,634
8581,618
8583,615
8585,599
8587,592
8589,597
8591,595
8594,591
8596,611
8598,617
8600,614
8602,616
8604,607
8606,591
8608,587
8610,580
8612,558
8614,552
8616,551
8618,548
8620,544
8622,526
8624,507
8626,495
8628,489
8630,496
8632,504
8634,597
8637,602
8639,683
8641,725
8643,710
8645,699
8647,689
8649,662
8651,645
8653,643
8655,625
8657,610
8659,672
8661,678
8663,706
8665,729
8667,712
8669,703
8671,674
8673,646
8675,621
8677,597
8679,584
8681,568
8683,555
8685,597
8687,612
8689,636
8691,700
8693,800
8695,837
8697,905
8699,931
8701,931
8703,931
8705,915
8707,878
8709,843
8711,804
8713,775
8715,784
8717,770
8719,780
8722,800
8724,776
8726,756
8728,738
8730,734
8732,760
8734,743
8736,750
8738,733
8740,708
8742,707
8744,687
8746,689
8748,672
8750,667
8752,696
8754,700
8756,762
8758,766
8760,756
8762,737
8765,733
8767,725
8769,706
8771,704
8773,677
8775,649
8777,634
8779,623
8781,629
8783,617
8785,620
8787,614
8789,600
8791,588
8793,573
8795,563
8797,560
8799,552
8801,565
8803,552
8805,548
8807,551
8809,541
8811,541
8813,523
8815,505
8817,523
8819,544
8821,554
8823,540
8825,525
8827,508
8829,490
8831,485
8833,534
8835,611
8837,613
8839,678
8841,740
8843,747
8845,781
8847,765
8850,792
8852,796
8854,767
8856,737
8858,715
8860,707
8862,688
8864,662
8866,701
8868,745
8870,740
8872,799
8874,828
8876,815
8878,786
8880,790
8882,781
8884,749
8886,740
8888,740
8890,732
8893,774
8895,767
8897,762
8899,842
8901,866
8903,876
8905,927
8907,926
8909,895
8911,868
8913,858
8915,833
8917,819
8919,797
8921,793
8923,765
8925,742
8927,715
8929,685
8931,655
8933,641
8935,640
8937,624
8939,599
8941,580
8943,559
8945,541
8947,527
8949,507
8951,511
8953,574
8955,657
8957,668
8959,767
8961,853
8963,843
8965,811
8967,785
8969,774
8971,746
8973,727
8975,712
8978,770
8980,805
8982,815
8984,882
8986,889
8988,857
8990,826
8992,817
8994,809
8996,782
8998,778
9000,761
9002,730
9004,698
9006,667
9008,638
9010,610
9012,603
9014,626
9016,645
9018,632
9021,658
9023,674
9025,654
9027,652
9029,696
9031,724
9033,726
9035,782
9037,784
9039,791
9041,885
9043,915
9045,931
9047,931
9049,931
9051,931
9053,931
9055,931
9057,931
9059,931
9061,931
9063,931
9065,930
9067,902
9069,863
9071,828
9073,792
9075,764
9077,737
9079,713
9081,693
9083,668
9085,644
9087,625
9089,599
9091,576
9093,583
9095,608
9097,618
9099,603
9101,614
9103,613
9106,593
9108,590
9110,606
9112,612
9114,594
9116,570
9118,551
9120,542
9122,542
9124,551
9126,582
9128,599
9130,582
9132,589
9134,601
9136,609
9138,623
9140,617
9142,592
9144,569
9146,548
9149,538
9151,531
9153,511
9155,498
9157,487
9159,469
9161,449
9163,429
9165,411
9167,394
9169,379
9171,369
9173,364
9175,351
9177,347
9179,336
9181,327
9183,314
9185,301
9187,290
9189,278
9191,272
9193,273
9195,274
9197,266
9199,257
9201,260
9203,256
9205,273
9207,301
9209,300
9211,318
9213,317
9215,325
9217,332
9219,330
9221,340
9223,333
9225,352
9227,362
9229,349
9231,335
9234,321
9236,307
9238,300
9240,310
9242,312
9244,302
9246,303
9248,307
9250,305
9252,294
9254,282
9256,272
9258,263
9260,254
9262,244
9264,234
9266,224
9268,215
9270,206
9272,197
9274,189
9277,181
9279,173
9281,166
9283,160
9285,155
9287,149
9289,144
9291,138
9293,133
9295,130
9297,127
9299,123
9301,121
9303,118
9305,113
9307,109
9309,105
9311,102
9313,101
9315,99
9317,95
9319,93
9321,90
9323,86
9325,83
9327,80
9329,79
9331,77
9333,76
9335,76
9337,76
9339,74
9341,72
9343,71
9345,68
9347,66
9349,64
9351,63
9353,64
9355,63
9357,69
9359,69
9362,66
9364,65
9366,65
9368,63
9370,62
9372,60
9374,61
9376,60
9378,60
9380,63
9382,62
9384,61
9386,60
9388,61
9390,63
9392,68
9394,67
9396,67
9398,70
9400,71
9402,70
9405,74
9407,73
9409,75
9411,76
9413,74
9415,77
9417,75
9419,91
9421,100
9423,107
9425,113
9427,115
9429,115
9431,116
9433,119
9435,117
9437,117
9439,120
9441,117
9443,114
9445,110
9447,107
9449,103
9451,101
9453,98
9455,96
9457,94
9459,94
9461,92
9463,89
9465,102
9467,101
9469,100
9471,101
9473,103
9475,103
9477,108
9479,108
9481,117
9483,117
9485,128
9487,140
9490,144
9492,152
9494,156
9496,160
9498,170
9500,173
9502,176
9504,172
9506,169
9508,163
9510,159
9512,154
9514,150
9516,145
9518,140
9520,140
9522,143
9524,142
9526,144
9528,146
9530,144
9533,147
9535,162
9537,174
9539,172
9541,177
9543,171
9545,175
9547,179
9549,205
9551,202
9553,205
9555,207
9557,205
9559,201
9561,197
9563,193
9565,188
9567,202
9569,203
9571,224
9573,228
9575,224
9577,220
9579,212
9581,204
9583,200
9585,201
9587,203
9589,201
9591,216
9593,211
9595,216
9597,218
9599,216
9601,218
9603,229
9605,237
9607,246
9609,236
9611,228
9613,219
9615,214
9618,206
9620,199
9622,193
9624,187
9626,181
9628,184
9630,195
9632,192
9634,189
9636,189
9638,191
9640,206
9642,207
9644,206
9646,205
9648,203
9650,199
9652,194
9654,193
9656,193
9658,194
9661,187
9663,190
9665,187
9667,186
9669,181
9671,175
9673,169
9675,162
9677,158
9679,154
9681,150
9683,147
9685,142
9687,138
9689,135
9691,131
9693,127
9695,124
9697,121
9699,117
9701,116
9703,115
9705,112
9707,111
9709,125
9711,127
9713,129
9715,126
9717,124
9719,127
9721,133
9723,137
9725,140
9727,140
9729,136
9731,143
9733,143
9735,143
9737,142
9739,152
9741,157
9743,154
9746,161
9748,170
9750,178
9752,185
9754,180
9756,191
9758,218
9760,233
9762,230
9764,231
9766,237
9768,230
9770,230
9772,230
9774,231
9776,242
9778,263
9780,303
9782,341
9784,340
9786,374
9789,431
9791,471
9793,474
9795,498
9797,556
9799,567
9801,563
9803,557
9805,576
9807,574
9809,592
9811,638
9813,661
9815,676
9817,686
9819,667
9821,687
9823,739
9825,756
9827,732
9829,713
9831,712
9833,729
9835,741
9837,718
9839,730
9841,779
9843,826
9845,818
9847,861
9849,903
9851,901
9853,914
9855,931
9857,931
9859,931
9861,931
9863,931
9865,931
9867,931
9869,931
9871,931
9874,931
9876,931
9878,931
9880,931
9882,931
9884,931
9886,931
9888,931
9890,931
9892,930
9894,931
9896,931
9898,931
9900,931
9902,931
9904,931
9906,931
9908,931
9910,931
9912,931
9914,931
9917,931
9919,931
9921,931
9923,931
9925,931
9927,931
9929,931
9931,931
9933,931
9935,931
9937,931
9939,931
9941,931
9943,931
9945,931
9947,931
9949,931
9951,931
9953,931
9955,931
9957,931
9959,931
9961,931
9963,931
9965,931
9967,931
9969,931
9971,931
9973,931
9975,931
9977,931
9979,931
9981,931
9983,931
9985,931
9987,931
9989,931
9991,931
9993,931
9995,931
9997,931
9999,931
10002,931
10004,931
10006,931
10008,931
10010,931
10012,931
10014,931
10016,931
10018,931
10020,931
10022,931
10024,931
10026,931
10028,931
10030,931
10032,931
10034,931
10036,931
10038,931
10040,931
10042,931
10045,931
10047,931
10049,931
10051,931
10053,931
10055,931
10057,931
10059,931
10061,931
10063,931
10065,931
10067,931
10069,931
10071,931
10073,931
10075,931
10077,931
10079,931
10081,931
10083,931
10085,931
10087,931
10089,931
10091,931
10093,931
10095,931
10097,931
10099,931
10101,931
10103,931
10105,931
10107,931
10109,931
10111,931
10113,931
10115,931
10117,931
10119,931
10121,931
10123,931
10125,931
10127,931
10130,931
10132,931
10134,931
10136,931
10138,931
10140,931
10142,931
10144,931
10146,931
10148,931
10150,931
10152,931
10154,931
10156,931
10158,931
10160,931
10162,931
10164,931
10166,931
10168,931
10170,931
10173,931
10175,931
10177,931
10179,931
10181,931
10183,932
10185,931
10187,931
10189,931
10191,932
10193,931
10195,931
10197,931
10199,931
10201,931
10203,931
10205,931
10207,931
10209,931
10211,931
10213,931
10215,932
10217,932
10219,931
10221,931
10223,931
10225,931
10227,932
10229,931
10231,931
10233,931
10235,931
10237,931
10239,931
10241,931
10243,932
10245,931
10247,932
10249,932
10251,932
10253,931
10255,931
10258,931
10260,931
10262,931
10264,931
10266,931
10268,932
10270,931
10272,931
10274,931
10276,931
10278,931
10280,931
10282,931
10284,931
10286,931
10288,931
10290,932
10292,931
10294,932
10296,931
10298,931
10301,931
10303,932
10305,931
10307,932
10309,931
10311,931
10313,931
10315,931
10317,931
10319,932
10321,932
10323,931
10325,931
10327,931
10329,931
10331,931
10333,931
10335,931
10337,932
10339,931
10341,931
10343,931
10345,931
10347,931
10349,931
10351,931
10353,931
10355,931
10357,931
10359,932
10361,931
10363,931
10365,932
10367,931
10369,931
10371,931
10373,932
10375,932
10377,931
10379,931
10381,932
10383,932
10386,931
10388,931
10390,931
10392,931
10394,931
10396,931
10398,931
10400,931
10402,931
10404,932
10406,931
10408,931
10410,932
10412,931
10414,931
10416,931
10418,931
10420,931
10422,931
10424,931
10426,931
10429,931
10431,931
10433,931
10435,931
10437,931
10439,932
10441,931
10443,932
10445,931
10447,931
10449,932
10451,931
10453,931
10455,931
10457,931
10459,931
10461,931
10463,931
10465,931
10467,931
10469,931
10471,931
10473,931
10475,931
10477,931
10479,931
10481,931
10483,931
10485,931
10487,931
10489,931
10491,931
10493,931
10495,931
10497,931
10499,931
10501,931
10503,931
10505,931
10507,931
10509,931
10511,931
10514,931
10516,931
10518,931
10520,931
10522,931
10524,931
10526,931
10528,931
10530,931
10532,931
10534,931
10536,931
10538,931
10540,931
10542,931
10544,931
10546,931
10548,931
10550,931
10552,931
10554,931
10557,931
10559,931
10561,931
10563,931
10565,931
10567,931
10569,931
10571,931
10573,931
10575,931
10577,931
10579,931
10581,931
10583,931
10585,931
10587,931
10589,931
10591,931
10593,931
10595,931
10597,931
10599,931
10601,931
10603,930
10605,893
10607,855
10609,824
10611,806
10613,801
10615,818
10617,828
10619,849
10621,824
10623,807
10625,791
10627,779
10629,752
10631,726
10633,722
10635,723
10637,708
10639,710
10642,681
10644,693
10646,708
10648,759
10650,781
10652,800
10654,810
10656,779
10658,749
10660,718
10662,692
10664,677
10666,650
10668,623
10670,602
10672,584
10674,566
10676,551
10678,535
10680,538
10682,545
10685,623
10687,666
10689,748
10691,731
10693,719
10695,701
10697,717
10699,710
10701,689
10703,665
10705,644
10707,625
10709,609
10711,584
10713,565
10715,560
10717,552
10719,561
10721,562
10723,558
10725,536
10727,525
10729,519
10731,510
10733,500
10735,506
10737,491
10739,489
10741,486
10743,497
10745,513
10747,499
10749,486
10751,478
10753,489
10755,473
10757,462
10759,463
10761,492
10763,501
10765,494
10767,482
10770,467
10772,453
10774,445
10776,435
10778,454
10780,484
10782,512
10784,558
10786,576
10788,588
10790,565
10792,543
10794,524
10796,504
10798,482
10800,463
10802,446
10804,437
10806,428
10808,424
10810,430
10813,454
10815,449
10817,467
10819,457
10821,447
10823,467
10825,456
10827,437
10829,420
10831,420
10833,418
10835,409
10837,397
10839,386
10841,380
10843,366
10845,359
10847,349
10849,429
10851,457
10853,568
10855,613
10857,632
10859,642
10861,620
10863,594
10865,591
10867,585
10869,582
10871,579
10873,567
10875,621
10877,616
10879,658
10881,685
10883,661
10885,635
10887,618
10889,599
10891,586
10893,565
10895,548
10898,561
10900,630
10902,663
10904,748
10906,747
10908,752
10910,726
10912,697
10914,674
10916,668
10918,655
10920,662
10922,670
10924,766
10926,803
10928,870
10930,906
10932,876
10934,868
10936,841
10938,805
10941,769
10943,734
10945,704
10947,679
10949,657
10951,633
10953,662
10955,651
10957,677
10959,678
10961,667
10963,640
10965,636
10967,627
10969,601
10971,582
10973,570
10975,546
10977,535
10979,552
10981,539
10983,550
10985,623
10987,639
10989,691
10991,749
10993,731
10995,701
10997,673
10999,644
11001,626
11003,607
11005,598
11007,574
11009,552
11011,535
11013,519
11015,506
11017,492
11019,507
11021,523
11023,508
11026,513
11028,535
11030,529
11032,549
11034,547
11036,540
11038,595
11040,622
11042,632
11044,654
11046,631
11048,607
11050,606
11052,609
11054,598
11056,608
11058,674
11060,670
11062,715
11064,734
11066,721
11069,707
11071,677
11073,694
11075,694
11077,704
11079,736
11081,720
11083,702
11085,675
11087,684
11089,708
11091,690
11093,711
11095,712
11097,686
11099,669
11101,656
11103,654
11105,652
11107,643
11109,625
11111,611
11113,607
11115,595
11117,580
11119,587
11121,592
11123,584
11125,568
11127,592
11129,599
11131,583
11133,604
11135,671
11137,667
11139,708
11141,744
11143,725
11145,712
11147,689
11149,662
11151,636
11154,609
11156,584
11158,565
11160,587
11162,667
11164,674
11166,742
11168,798
11170,776
11172,748
11174,740
11176,713
11178,690
11180,666
11182,652
11184,737
11186,792
11188,794
11190,877
11192,924
11194,896
11197,860
11199,822
11201,786
11203,754
11205,729
11207,702
11209,676
11211,654
11213,646
11215,632
11217,606
11219,589
11221,570
11223,545
11225,522
11227,511
11229,498
11231,479
11233,465
11235,455
11237,468
11239,499
11241,541
11243,551
11245,634
11247,694
11249,679
11251,655
11253,649
11255,735
11257,799
11259,802
11261,876
11263,876
11265,902
11267,931
11269,931
11271,931
11273,931
11275,931
11277,931
11279,931
11282,931
11284,931
11286,928
11288,897
11290,871
11292,843
11294,813
11296,779
11298,744
11300,712
11302,681
11304,650
11306,621
11308,603
11310,597
11312,591
11314,593
11316,571
11318,563
11320,568
11322,563
11325,548
11327,559
11329,599
11331,592
11333,617
11335,643
11337,629
11339,601
11341,576
11343,559
11345,565
11347,587
11349,640
11351,636
11353,686
11355,783
11357,815
11359,795
11361,774
11363,750
11365,734
11367,725
11369,703
11371,673
11373,646
11375,619
11377,595
11379,572
11381,548
11383,531
11385,557
11387,598
11389,593
11391,615
11393,660
11395,664
11397,637
11399,615
11401,589
11403,565
11405,565
11407,611
11410,674
11412,703
11414,702
11416,760
11418,812
11420,839
11422,836
11424,812
11426,797
11428,765
11430,736
11432,705
11434,684
11436,671
11438,653
11440,627
11442,607
11444,592
11446,604
11448,599
11450,579
11453,556
11455,545
11457,563
11459,583
11461,584
11463,566
11465,547
11467,530
11469,513
11471,498
11473,482
11475,472
11477,488
11479,495
11481,487
11483,505
11485,506
11487,506
11489,516
11491,503
11493,520
11495,527
11497,515
11499,504
11501,489
11503,469
11505,591
11507,599
11509,593
11511,583
11513,568
11515,551
11517,533
11519,515
11521,494
11523,487
11525,489
11527,474
11529,476
11531,484
11533,480
11535,467
11538,448
11540,430
11542,414
11544,396
11546,379
11548,365
11550,351
11552,336
11554,322
11556,308
11558,295
11560,284
11562,277
11564,266
11566,257
11568,247
11570,237
11572,227
11574,217
11576,208
11578,202
11581,195
11583,188
11585,181
11587,173
11589,298
11591,310
11593,319
11595,416
11597,444
11599,460
11601,469
11603,473
11605,470
11607,460
11609,450
11611,439
11613,428
11615,414
11617,397
11619,381
11621,366
11623,358
11625,343
11627,328
11629,314
11631,304
11633,295
11635,285
11637,275
11639,268
11641,256
11643,246
11645,237
11647,227
11649,218
11651,211
11653,208
11655,202
11657,195
11659,188
11661,183
11663,183
11666,177
11668,174
11670,171
11672,165
11674,161
11676,155
11678,149
11680,147
11682,150
11684,146
11686,142
11688,144
11690,144
11692,139
11694,137
11696,136
11698,133
11700,136
11702,136
11704,139
11706,140
11709,137
11711,133
11713,135
11715,135
11717,136
11719,135
11721,133
11723,137
11725,141
11727,143
11729,145
11731,147
11733,148
11735,144
11737,143
11739,139
11741,146
11743,144
11745,151
11747,146
11749,143
11751,142
11753,142
11755,139
11757,155
11759,163
11761,166
11763,169
11765,165
11767,176
11769,179
11771,176
11773,181
11775,178
11777,176
11779,178
11781,175
11783,181
11785,178
11787,175
11789,175
11791,177
11794,189
11796,190
11798,205
11800,208
11802,208
11804,211
11806,208
11808,204
11810,208
11812,207
11814,204
11816,203
11818,198
11820,199
11822,201
11824,195
11826,197
11828,191
11830,192
11832,194
11834,193
11837,195
11839,189
11841,186
11843,185
11845,188
11847,194
11849,210
11851,209
11853,222
11855,222
11857,225
11859,220
11861,217
11863,214
11865,215
11867,216
11869,217
11871,220
11873,216
11875,219
11877,216
11879,212
11881,206
11883,201
11885,201
11887,206
11889,199
11891,196
11893,194
11895,188
11897,185
11899,185
11901,183
11903,187
11905,184
11907,184
11909,181
11911,182
11913,181
11915,179
11917,179
11919,173
11922,171
11924,167
11926,160
11928,154
11930,148
11932,142
11934,137
11936,132
11938,129
11940,124
11942,119
11944,114
11946,110
11948,105
11950,101
11952,99
11954,96
11956,95
11958,92
11960,89
11962,88
11965,96
11967,100
11969,99
11971,103
11973,105
11975,102
11977,104
11979,108
11981,112
11983,134
11985,153
11987,159
11989,178
11991,218
11993,240
11995,263
11997,325
11999,353
12001,358
12003,363
12005,362
12007,355
12009,367
12011,430
12013,485
12015,486
12017,546
12019,612
12021,611
12023,584
12025,564
12027,541
12029,525
12031,540
12033,567
12035,631
12037,678
12039,668
12041,735
12043,851
12045,891
12047,873
12050,885
12052,887
12054,884
12056,893
12058,878
12060,879
12062,909
12064,912
12066,893
12068,896
12070,889
12072,865
12074,841
12076,861
12078,879
12080,888
12082,931
12084,931
12086,930
12088,917
12090,931
12093,931
12095,931
12097,931
12099,931
12101,914
12103,924
12105,931
12107,931
12109,931
12111,931
12113,931
12115,931
12117,931
12119,931
12121,931
12123,931
12125,931
12127,931
12129,931
12131,931
12133,931
12135,931
12137,931
12139,931
12141,931
12143,931
12145,931
12147,931
12149,931
12151,931
12153,931
12155,931
12157,931
12159,931
12161,931
12163,931
12165,931
12167,931
12169,931
12171,931
12173,931
12175,931
12178,931
12180,931
12182,931
12184,931
12186,931
12188,931
12190,931
12192,931
12194,931
12196,931
12198,931
12200,931
12202,931
12204,931
12206,931
12208,931
12210,931
12212,931
12214,931
12216,931
12218,931
12221,931
12223,931
12225,931
12227,931
12229,931
12231,931
12233,931
12235,931
12237,931
12239,931
12241,931
12243,932
12245,931
12247,931
12249,931
12251,931
12253,932
12255,931
12257,931
12259,931
12261,931
12263,931
12265,931
12267,932
12269,932
12271,931
12273,931
12275,931
12277,931
12279,931
12281,931
12283,932
12285,931
12287,931
12289,931
12291,931
12293,931
12295,931
12297,931
12299,931
12301,931
12303,931
12306,931
12308,931
12310,931
12312,931
12314,931
12316,931
12318,931
12320,931
12322,931
12324,932
12326,931
12328,932
12330,931
12332,932
12334,932
12336,931
12338,932
12340,931
12342,931
12344,932
12346,932
12349,931
12351,931
12353,931
12355,931
12357,932
12359,931
12361,931
12363,931
12365,931
12367,931
12369,931
12371,931
12373,931
12375,932
12377,931
12379,931
12381,931
12383,931
12385,932
12387,932
12389,932
12391,931
12393,931
12395,931
12397,932
12399,931
12401,931
12403,931
12405,931
12407,931
12409,932
12411,931
12413,932
12415,931
12417,931
12419,931
12421,931
12423,931
12425,931
12427,932
12429,932
12431,931
12434,932
12436,932
12438,931
12440,931
12442,932
12444,932
12446,931
12448,931
12450,931
12452,932
12454,932
12456,931
12458,932
12460,931
12462,931
12464,932
12466,931
12468,932
12470,931
12472,931
12474,931
12477,931
12479,931
12481,931
12483,931
12485,931
12487,931
12489,931
12491,931
12493,932
12495,931
12497,931
12499,932
12501,932
12503,931
12505,931
12507,931
12509,931
12511,931
12513,931
12515,931
12517,931
12519,931
12521,931
12523,931
12525,932
12527,932
12529,931
12531,932
12533,931
12535,931
12537,931
12539,931
12541,931
12543,932
12545,932
12547,931
12549,932
12551,932
12553,931
12555,931
12557,931
12559,931
12562,931
12564,931
12566,931
12568,931
12570,931
12572,931
12574,931
12576,932
12578,932
12580,932
12582,931
12584,931
12586,932
12588,931
12590,932
12592,931
12594,931
12596,931
12598,931
12600,932
12602,932
12605,932
12607,931
12609,932
12611,932
12613,932
12615,931
12617,931
12619,932
12621,931
12623,931
12625,931
12627,931
12629,931
12631,931
12633,931
12635,932
12637,931
12639,931
12641,932
12643,931
12645,931
12647,932
12649,931
12651,932
12653,931
12655,932
12657,931
12659,932
12661,931
12663,931
12665,931
12667,931
12669,931
12671,931
12673,931
12675,931
12677,931
12679,931
12681,932
12683,931
12685,931
12687,931
12690,931
12692,931
12694,931
12696,931
12698,931
12700,931
12702,931
12704,931
12706,932
12708,932
12710,932
12712,931
12714,931
12716,931
12718,931
12720,931
12722,931
12724,931
12726,931
12728,931
12730,931
12733,931
12735,931
12737,931
12739,931
12741,931
12743,931
12745,931
12747,931
12749,931
12751,931
12753,931
12755,931
12757,931
12759,931
12761,931
12763,931
12765,931
12767,915
12769,888
12771,891
12773,872
12775,876
12777,881
12779,869
12781,844
12783,844
12785,826
12787,815
12789,828
12791,810
12793,810
12795,789
12797,788
12799,770
12801,787
12803,773
12805,785
12807,758
12809,732
12811,702
12813,671
12815,647
12818,625
12820,618
12822,627
12824,660
12826,659
12828,668
12830,642
12832,617
12834,737
12836,732
12838,731
12840,721
12842,707
12844,694
12846,681
12848,673
12850,646
12852,623
12854,600
12856,574
12858,553
12861,534
12863,557
12865,590
12867,627
12869,778
12871,762
12873,750
12875,741
12877,727
12879,705
12881,685
12883,670
12885,651
12887,625
12889,631
12891,632
12893,617
12895,631
12897,622
12899,602
12901,595
12903,596
12905,596
12907,594
12909,584
12911,569
12913,562
12915,561
12917,560
12919,565
12921,563
12923,580
12925,589
12927,582
12929,557
12931,536
12933,522
12935,502
12937,491
12939,478
12941,461
12943,451
12946,461
12948,462
12950,484
12952,479
12954,495
12956,495
12958,520
12960,509
12962,541
12964,541
12966,725
12968,769
12970,773
12972,758
12974,730
12976,749
12978,768
12980,739
12982,718
12984,694
12986,671
12989,663
12991,636
12993,608
12995,583
12997,560
12999,538
13001,526
13003,577
13005,585
13007,646
13009,692
13011,671
13013,650
13015,625
13017,605
13019,604
13021,640
13023,647
13025,709
13027,726
13029,781
13031,776
13033,774
13035,771
13037,754
13039,729
13041,709
13043,707
13045,692
13047,694
13049,679
13051,654
13053,632
13055,620
13057,611
13059,620
13061,606
13063,594
13065,569
13067,576
13069,614
13071,607
13074,656
13076,681
13078,661
13080,645
13082,650
13084,633
13086,646
13088,631
13090,620
13092,752
13094,733
13096,737
13098,728
13100,710
13102,700
13104,763
13106,779
13108,884
13110,931
13112,931
13114,930
13117,900
13119,870
13121,868
13123,843
13125,844
13127,821
13129,800
13131,769
13133,739
13135,715
13137,726
13139,775
13141,767
13143,741
13145,710
13147,743
13149,791
13151,767
13153,739
13155,712
13157,688
13159,677
13161,664
13163,699
13165,691
13167,689
13169,700
13171,688
13173,673
13175,649
13177,620
13179,595
13181,592
13183,584
13185,597
13187,616
13189,616
13191,656
13193,661
13195,643
13197,645
13199,631
13202,625
13204,620
13206,605
13208,585
13210,583
13212,565
13214,548
13216,528
13218,525
13220,516
13222,502
13224,486
13226,468
13228,489
13230,497
13232,494
13234,534
13236,575
13238,629
13240,638
13242,739
13245,771
13247,755
13249,722
13251,691
13253,662
13255,635
13257,611
13259,596
13261,607
13263,592
13265,580
13267,569
13269,547
13271,524
13273,507
13275,502
13277,559
13279,577
13281,599
13283,672
13285,683
13287,673
13289,658
13291,757
13293,787
13295,848
13297,931
13299,931
13301,918
13303,876
13305,840
13307,813
13309,796
13311,781
13313,771
13315,757
13317,740
13319,736
13321,722
13323,696
13325,671
13327,656
13330,657
13332,641
13334,637
13336,631
13338,626
13340,643
13342,648
13344,624
13346,605
13348,581
13350,560
13352,535
13354,517
13356,498
13358,478
13360,474
13362,523
13364,587
13366,588
13368,653
13370,714
13373,709
13375,702
13377,681
13379,675
13381,661
13383,643
13385,644
13387,630
13389,603
13391,580
13393,561
13395,544
13397,544
13399,549
13401,533
13403,546
13405,545
13407,528
13409,513
13411,504
13413,485
13415,474
13417,464
13419,465
13421,463
13423,460
13425,492
13427,513
13429,505
13431,515
13433,582
13435,601
13437,608
13439,661
13441,675
13443,651
13445,625
13447,621
13449,641
13451,645
13453,627
13455,602
13458,589
13460,600
13462,597
13464,575
13466,551
13468,530
13470,509
13472,490
13474,469
13476,450
13478,430
13480,416
13482,404
13484,391
13486,414
13488,478
13490,509
13492,520
13494,588
13496,638
13498,642
13501,618
13503,598
13505,603
13507,658
13509,691
13511,674
13513,681
13515,670
13517,654
13519,669
13521,668
13523,648
13525,621
13527,594
13529,572
13531,561
13533,564
13535,564
13537,549
13539,562
13541,610
13543,617
13545,621
13547,698
13549,751
13551,739
13553,712
13555,683
13557,654
13559,631
13561,610
13563,590
13565,570
13567,551
13569,532
13571,513
13573,494
13575,476
13577,456
13579,436
13581,420
13583,412
13586,413
13588,451
13590,519
13592,535
13594,533
13596,582
13598,630
13600,681
13602,710
13604,690
13606,671
13608,649
13610,638
13612,655
13614,658
13616,637
13618,635
13620,630
13622,626
13624,658
13626,663
13629,666
13631,706
13633,719
13635,696
13637,666
13639,646
13641,633
13643,612
13645,591
13647,568
13649,562
13651,560
13653,540
13655,528
13657,518
13659,505
13661,485
13663,463
13665,443
13667,424
13669,405
13671,396
13673,379
13675,364
13677,348
13679,333
13681,319
13683,305
13685,292
13687,279
13689,267
13691,256
13693,249
13695,261
13697,267
13699,259
13701,257
13703,252
13705,250
13707,259
13709,256
13711,257
13714,252
13716,258
13718,259
13720,251
13722,247
13724,241
13726,231
13728,226
13730,222
13732,213
13734,204
13736,197
13738,190
13740,182
13742,174
13744,167
13746,162
13748,156
13750,150
13752,144
13754,138
13757,132
13759,127
13761,122
13763,117
13765,113
13767,108
13769,106
13771,103
13773,101
13775,99
13777,98
13779,94
13781,91
13783,88
13785,84
13787,83
13789,81
13791,81
13793,79
13795,76
13797,74
13799,73
13801,72
13803,70
13805,90
13807,202
13809,220
13811,236
13813,246
13815,248
13817,245
13819,241
13821,234
13823,227
13825,223
13827,216
13829,209
13831,201
13833,200
13835,196
13837,189
13839,182
13842,175
13844,170
13846,164
13848,158
13850,153
13852,150
13854,144
13856,138
13858,133
13860,129
13862,124
13864,120
13866,117
13868,114
13870,110
13872,106
13874,102
13876,101
13878,100
13880,98
13882,100
13885,101
13887,102
13889,101
13891,99
13893,99
13895,100
13897,114
13899,120
13901,125
13903,140
13905,147
13907,144
13909,139
13911,144
13913,148
13915,155
13917,168
13919,167
13921,165
13923,162
13925,158
13927,156
13929,152
13931,150
13933,151
13935,150
13937,146
13939,142
13941,140
13943,137
13945,133
13947,130
13949,127
13951,125
13953,124
13955,120
13957,126
13959,129
13961,127
13963,131
13965,129
13967,132
13970,140
13972,145
13974,151
13976,148
13978,147
13980,148
13982,144
13984,150
13986,146
13988,152
13990,180
13992,189
13994,193
13996,190
13998,183
14000,176
14002,173
14004,172
14006,174
14008,172
14010,171
14013,167
14015,168
14017,169
14019,171
14021,171
14023,185
14025,186
14027,197
14029,195
14031,190
14033,191
14035,186
14037,183
14039,185
14041,200
14043,200
14045,205
14047,208
14049,206
14051,201
14053,213
14055,213
14057,211
14059,216
14061,211
14063,204
14065,199
14067,191
14069,185
14071,181
14073,180
14075,178
14077,173
14079,172
14081,166
14083,163
14085,166
14087,164
14089,163
14091,163
14093,171
14095,173
14098,167
14100,167
14102,166
14104,160
14106,155
14108,153
14110,170
14112,173
14114,173
14116,167
14118,162
14120,160
14122,160
14124,172
14126,167
14128,163
14130,160
14132,166
14134,162
14136,173
14138,175
14141,179
14143,176
14145,170
14147,165
14149,164
14151,169
14153,165
14155,165
14157,163
14159,157
14161,154
14163,150
14165,148
14167,143
14169,138
14171,132
14173,127
14175,122
14177,117
14179,112
14181,108
14183,106
14185,101
14187,98
14189,94
14191,90
14193,87
14195,83
14197,80
14199,78
14201,78
14203,78
14205,80
14207,78
14209,84
14211,118
14213,141
14215,142
14217,172
14219,204
14221,207
14223,216
14226,227
14228,224
14230,221
14232,227
14234,226
14236,244
14238,288
14240,315
14242,329
14244,393
14246,428
14248,422
14250,435
14252,460
14254,460
14256,456
14258,469
14260,463
14262,458
14264,475
14266,466
14269,466
14271,481
14273,494
14275,483
14277,485
14279,490
14281,514
14283,595
14285,661
14287,663
14289,731
14291,802
14293,816
14295,790
14297,767
14299,757
14301,795
14303,793
14305,778
14307,804
14309,829
14311,829
14313,809
14315,847
14317,909
14319,900
14321,931
14323,931
14325,931
14327,931
14329,931
14331,931
14333,931
14335,931
14337,931
14339,931
14341,931
14343,931
14345,931
14347,931
14349,931
14351,931
14354,931
14356,931
14358,931
14360,931
14362,931
14364,931
14366,931
14368,931
14370,931
14372,931
14374,931
14376,931
14378,931
14380,931
14382,931
14384,931
14386,931
14388,931
14390,931
14392,931
14394,931
14397,931
14399,931
14401,931
14403,931
14405,931
14407,931
14409,931
14411,931
14413,931
14415,931
14417,931
14419,931
14421,931
14423,931
14425,931
14427,931
14429,931
14431,931
14433,932
14435,931
14437,932
14439,931
14441,931
14443,931
14445,931
14447,931
14449,931
14451,931
14453,931
14455,932
14457,931
14459,931
14461,931
14463,931
14465,931
14467,931
14469,931
14471,931
14473,932
14475,931
14477,931
14479,931
14482,931
14484,931
14486,931
14488,931
14490,931
14492,931
14494,931
14496,931
14498,931
14500,931
14502,931
14504,931
14506,931
14508,931
14510,931
14512,931
14514,931
14516,931
14518,931
14520,931
14522,931
14525,931
14527,931
14529,931
14531,931
14533,931
14535,931
14537,931
14539,931
14541,931
14543,931
14545,931
14547,931
14549,931
14551,931
14553,931
14555,931
14557,931
14559,931
14561,931
14563,931
14565,931
14567,931
14569,931
14571,931
14573,931
14575,931
14577,931
14579,931
14581,931
14583,931
14585,931
14587,931
14589,931
14591,931
14593,932
14595,931
14597,932
14599,931
14601,931
14603,931
14605,931
14607,931
14610,931
14612,931
14614,931
14616,931
14618,931
14620,931
14622,931
14624,931
14626,931
14628,931
14630,932
14632,931
14634,932
14636,931
14638,931
14640,931
14642,931
14644,931
14646,931
14648,932
14650,931
14653,931
14655,931
14657,931
14659,931
14661,931
14663,931
14665,931
14667,931
14669,931
14671,931
14673,931
14675,931
14677,931
14679,931
14681,931
14683,931
14685,931
14687,931
14689,931
14691,931
14693,931
14695,931
14697,931
14699,931
14701,931
14703,931
14705,931
14707,931
14709,931
14711,931
14713,931
14715,931
14717,932
14719,931
14721,931
14723,931
14725,931
14727,932
14729,932
14731,931
14733,932
14735,932
14738,931
14740,932
14742,932
14744,931
14746,932
14748,931
14750,931
14752,931
14754,931
14756,931
14758,931
14760,931
14762,931
14764,932
14766,932
14768,932
14770,931
14772,931
14774,932
14776,931
14778,931
14781,931
14783,931
14785,931
14787,932
14789,931
14791,931
14793,932
14795,932
14797,932
14799,932
14801,931
14803,931
14805,931
14807,932
14809,931
14811,931
14813,931
14815,932
14817,932
14819,931
14821,931
14823,931
14825,932
14827,931
14829,931
14831,932
14833,932
14835,932
14837,931
14839,931
14841,931
14843,931
14845,931
14847,931
14849,931
14851,931
14853,931
14855,931
14857,931
14859,931
14861,931
14863,931
14866,931
14868,931
14870,931
14872,931
14874,931
14876,931
14878,931
14880,931
14882,931
14884,931
14886,931
14888,931
14890,931
14892,931
14894,931
14896,931
14898,931
14900,931
14902,931
14904,931
14906,931
14909,931
14911,931
14913,931
14915,931
14917,931
14919,931
14921,931
14923,931
14925,931
14927,931
14929,931
14931,931
14933,931
14935,931
14937,931
14939,931
14941,931
14943,931
14945,931
14947,931
14949,931
14951,931
14953,931
14955,931
14957,931
14959,931
14961,931
14963,931
14965,931
14967,931
14969,931
14971,931
14973,931
14975,931
14977,931
14979,931
14981,931
14983,931
14985,931
14987,931
14989,931
14991,931
14994,931
14996,931
14998,931
15000,931
15002,931
15004,931
15006,931
15008,931
15010,931
15012,931
15014,931
15016,931
15018,931
15020,931
15022,931
15024,931
15026,931
15028,931
15030,931
15032,931
15034,921
15037,878
15039,839
15041,809
15043,780
15045,749
15047,725
15049,707
15051,702
15053,686
15055,678
15057,652
15059,627
15061,601
15063,577
15065,591
15067,594
15069,654
15071,664
15073,675
15075,655
15077,637
15079,626
15081,600
15083,604
15085,611
15087,594
15089,578
15091,560
15093,679
15095,698
15097,716
15099,694
15101,674
15103,654
15105,656
15107,658
15109,653
15111,653
15113,640
15115,665
15117,658
15119,635
15122,611
15124,593
15126,580
15128,581
15130,602
15132,603
15134,604
15136,594
15138,596
15140,591
15142,569
15144,551
15146,527
15148,505
15150,483
15152,481
15154,476
15156,480
15158,487
15160,467
15162,448
15165,437
15167,451
15169,462
15171,490
15173,517
15175,508
15177,506
15179,491
15181,493
15183,497
15185,555
15187,568
15189,620
15191,602
15193,579
15195,554
15197,532
15199,511
15201,489
15203,479
15205,477
15207,471
15209,483
15211,488
15213,472
15215,459
15217,452
15219,440
15221,487
15223,491
15225,537
15227,530
15229,512
15231,505
15233,502
15235,519
15237,503
15239,503
15241,490
15243,471
15245,452
15247,453
15250,449
15252,444
15254,442
15256,438
15258,428
15260,416
15262,428
15264,454
15266,448
15268,447
15270,432
15272,415
15274,413
15276,445
15278,446
15280,461
15282,452
15284,495
15286,508
15288,509
15290,531
15293,549
15295,546
15297,544
15299,564
15301,564
15303,606
15305,607
15307,606
15309,610
15311,597
15313,606
15315,597
15317,592
15319,574
15321,557
15323,546
15325,540
15327,531
15329,533
15331,527
15333,523
15335,514
15337,545
15339,556
15341,554
15343,541
15345,551
15347,695
15349,731
15351,837
15353,914
15355,893
15357,858
15359,827
15361,793
15363,759
15365,755
15367,768
15369,753
15371,754
15373,733
15375,705
15378,676
15380,646
15382,622
15384,619
15386,610
15388,599
15390,613
15392,599
15394,602
15396,595
15398,573
15400,572
15402,565
15404,579
15406,566
15408,549
15410,538
15412,521
15414,508
15416,491
15418,485
15421,481
15423,467
15425,455
15427,438
15429,424
15431,416
15433,415
15435,400
15437,388
15439,374
15441,395
15443,406
15445,398
15447,419
15449,422
15451,430
15453,430
15455,428
15457,442
15459,471
15461,485
15463,495
15465,559
15467,637
15469,650
15471,724
15473,778
15475,767
15477,748
15479,732
15481,844
15483,862
15485,842
15487,851
15489,879
15491,861
15493,850
15495,821
15497,789
15499,760
15501,731
15503,712
15506,698
15508,676
15510,654
15512,633
15514,627
15516,606
15518,582
15520,594
15522,644
15524,664
15526,675
15528,680
15530,691
15532,695
15534,731
15536,737
15538,707
15540,705
15542,686
15544,681
15546,664
15549,649
15551,642
15553,666
15555,656
15557,671
15559,705
15561,701
15563,679
15565,658
15567,632
15569,605
15571,583
15573,566
15575,551
15577,536
15579,523
15581,514
15583,502
15585,500
15587,493
15589,501
15591,527
15593,588
15595,598
15597,695
15599,780
15601,763
15603,752
15605,729
15607,700
15609,749
15611,796
15613,802
15615,890
15617,931
15619,930
15621,930
15623,895
15625,873
15627,841
15629,819
15631,802
15634,811
15636,801
15638,786
15640,800
15642,784
15644,760
15646,733
15648,702
15650,675
15652,647
15654,618
15656,632
15658,713
15660,758
15662,752
15664,818
15666,877
15668,899
15670,887
15672,858
15674,849
15677,831
15679,847
15681,902
15683,906
15685,880
15687,874
15689,883
15691,928
15693,931
15695,931
15697,923
15699,887
15701,854
15703,823
15705,793
15707,766
15709,740
15711,716
15713,695
15715,675
15717,655
15719,644
15721,620
15723,595
15725,574
15727,550
15729,531
15731,513
15733,521
15735,574
15737,618
15739,617
15741,679
15743,723
15745,704
15747,682
15749,674
15751,658
15753,629
15755,602
15757,576
15759,554
15762,533
15764,551
15766,612
15768,619
15770,643
15772,696
15774,706
15776,679
15778,655
15780,636
15782,639
15784,647
15786,631
15788,612
15790,598
15792,579
15794,565
15796,546
15798,527
15800,513
15802,494
15805,488
15807,476
15809,460
15811,446
15813,444
15815,458
15817,532
15819,635
15821,646
15823,746
15825,888
15827,930
15829,908
15831,868
15833,832
15835,803
15837,780
15839,758
15841,738
15843,721
15845,709
15847,706
15849,698
15851,677
15853,657
15855,649
15857,630
15859,609
15861,585
15863,559
15865,539
15867,573
15869,614
15871,608
15873,655
15875,697
15877,689
15879,661
15881,637
15883,613
15885,593
15887,579
15890,567
15892,556
15894,537
15896,518
15898,497
15900,490
15902,495
15904,482
15906,497
15908,520
15910,509
15912,510
15914,528
15916,524
15918,523
15920,531
15922,515
15924,504
15926,496
15928,502
15930,494
15933,475
15935,463
15937,455
15939,440
15941,428
15943,421
15945,406
15947,390
15949,376
15951,360
15953,347
15955,337
15957,323
15959,309
15961,298
15963,286
15965,274
15967,262
15969,255
15971,245
15973,239
15975,235
15977,225
15979,218
15981,211
15983,202
15985,194
15987,188
15989,182
15991,174
15993,168
15995,164
15997,158
15999,155
16001,149
16003,145
16005,261
16007,274
16009,288
16011,292
16013,290
16015,283
16018,277
16020,272
16022,267
16024,258
16026,249
16028,241
16030,233
16032,228
16034,221
16036,214
16038,206
16040,200
16042,196
16044,190
16046,189
16048,182
16050,175
16052,171
16054,167
16056,164
16058,160
16061,158
16063,155
16065,151
16067,152
16069,149
16071,145
16073,139
16075,135
16077,134
16079,130
16081,124
16083,122
16085,118
16087,114
16089,109
16091,108
16093,106
16095,103
16097,99
16099,95
16101,95
16103,93
16105,89
16107,86
16109,83
16111,85
16113,89
16115,86
16117,90
16119,98
16121,95
16123,92
16125,93
16127,92
16129,102
16131,105
16133,105
16135,107
16137,103
16139,101
16141,103
16143,100
16146,97
16148,94
16150,95
16152,93
16154,91
16156,93
16158,92
16160,90
16162,89
16164,91
16166,91
16168,89
16170,91
16172,92
16174,90
16176,90
16178,91
16180,98
16182,98
16184,103
16186,107
16189,115
16191,117
16193,128
16195,126
16197,123
16199,127
16201,130
16203,130
16205,133
16207,132
16209,129
16211,130
16213,126
16215,126
16217,125
16219,124
16221,133
16223,129
16225,126
16227,126
16229,129
16231,128
16233,129
16235,127
16237,123
16239,128
16241,126
16243,126
16245,124
16247,126
16249,127
16251,123
16253,123
16255,122
16257,123
16259,123
16261,130
16263,137
16265,146
16267,147
16269,153
16271,153
16274,153
16276,151
16278,155
16280,150
16282,151
16284,150
16286,146
16288,148
16290,144
16292,140
16294,148
16296,147
16298,157
16300,161
16302,158
16304,152
16306,151
16308,150
16310,146
16312,141
16314,137
16317,132
16319,131
16321,132
16323,138
16325,137
16327,136
16329,137
16331,142
16333,139
16335,134
16337,131
16339,129
16341,125
16343,120
16345,116
16347,116
16349,117
16351,117
16353,118
16355,115
16357,115
16359,115
16361,111
16363,106
16365,102
16367,100
16369,98
16371,105
16373,106
16375,107
16377,105
16379,106
16381,104
16383,103
16385,102
16387,102
16389,106
16391,109
16393,113
16395,118
16397,118
16399,114
16402,110
16404,107
16406,103
16408,100
16410,96
16412,93
16414,94
16416,93
16418,89
16420,88
16422,87
16424,87
16426,107
16428,137
16430,155
16432,164
16434,206
16436,241
16438,243
16440,263
16442,276
16445,281
16447,313
16449,327
16451,319
16453,318
16455,335
16457,357
16459,354
16461,364
16463,373
16465,369
16467,381
16469,373
16471,375
16473,387
16475,390
16477,380
16479,413
16481,463
16483,476
16485,480
16487,499
16489,535
16491,552
16493,547
16495,574
16497,592
16499,583
16501,576
16503,567
16505,564
16507,563
16509,544
16511,524
16513,527
16515,541
16517,548
16519,531
16521,529
16523,543
16525,581
16527,605
16530,592
16532,582
16534,566
16536,561
16538,559
16540,607
16542,601
16544,608
16546,614
16548,612
16550,643
16552,642
16554,704
16556,748
16558,739
16560,792
16562,868
16564,880
16566,892
16568,930
16570,931
16573,915
16575,886
16577,891
16579,874
16581,922
16583,931
16585,931
16587,931
16589,931
16591,931
16593,931
16595,931
16597,931
16599,931
16601,931
16603,931
16605,931
16607,931
16609,932
16611,931
16613,931
16615,931
16617,931
16619,931
16621,931
16623,931
16625,931
16627,931
16629,931
16631,931
16633,931
16635,931
16637,931
16639,931
16641,931
16643,931
16645,931
16647,931
16649,931
16651,931
16653,931
16655,931
16658,931
16660,931
16662,931
16664,931
16666,932
16668,931
16670,931
16672,931
16674,931
16676,931
16678,931
16680,931
16682,932
16684,931
16686,931
16688,931
16690,931
16692,931
16694,931
16696,931
16698,931
16701,931
16703,931
16705,931
16707,931
16709,931
16711,931
16713,931
16715,931
16717,931
16719,932
16721,931
16723,931
16725,932
16727,931
16729,932
16731,932
16733,931
16735,931
16737,931
16739,931
16741,931
16743,931
16745,931
16747,931
16749,931
16751,931
16753,931
16755,931
16757,931
16759,931
16761,931
16763,931
16765,931
16767,931
16769,932
16771,931
16773,931
16775,931
16777,931
16779,931
16781,931
16783,931
16786,931
16788,931
16790,931
16792,932
16794,932
16796,931
16798,931
16800,931
16802,931
16804,931
16806,931
16808,932
16810,932
16812,932
16814,931
16816,931
16818,931
16820,931
16822,932
16824,931
16826,931
16829,932
16831,931
16833,931
16835,932
16837,932
16839,931
16841,931
16843,931
16845,931
16847,932
16849,931
16851,931
16853,931
16855,931
16857,932
16859,931
16861,931
16863,931
16865,932
16867,931
16869,931
16871,931
16873,932
16875,932
16877,931
16879,931
16881,931
16883,932
16885,931
16887,931
16889,931
16891,932
16893,932
16895,931
16897,931
16899,932
16901,931
16903,931
16905,932
16907,932
16909,931
16911,931
16914,931
16916,932
16918,931
16920,931
16922,931
16924,931
16926,932
16928,931
16930,932
16932,932
16934,931
16936,931
16938,931
16940,932
16942,931
16944,931
16946,931
16948,932
16950,931
16952,931
16954,932
16957,932
16959,931
16961,932
16963,932
16965,932
16967,931
16969,932
16971,931
16973,932
16975,932
16977,931
16979,932
16981,931
16983,931
16985,932
16987,931
16989,932
16991,931
16993,931
16995,932
16997,932
16999,931
17001,931
17003,931
17005,931
17007,931
17009,931
17011,931
17013,931
17015,931
17017,932
17019,931
17021,932
17023,931
17025,931
17027,931
17029,931
17031,932
17033,932
17035,932
17037,931
17039,931
17042,931
17044,931
17046,931
17048,931
17050,931
17052,931
17054,932
17056,932
17058,932
17060,931
17062,931
17064,932
17066,931
17068,932
17070,932
17072,931
17074,931
17076,932
17078,932
17080,931
17082,931
17085,932
17087,931
17089,932
17091,932
17093,931
17095,932
17097,931
17099,931
17101,931
17103,931
17105,931
17107,931
17109,931
17111,931
17113,932
17115,932
17117,932
17119,931
17121,931
17123,931
17125,931
17127,931
17129,931
17131,932
17133,931
17135,931
17137,931
17139,931
17141,931
17143,931
17145,932
17147,931
17149,931
17151,932
17153,931
17155,931
17157,932
17159,931
17161,932
17163,932
17165,931
17167,931
17170,932
17172,931
17174,931
17176,931
17178,931
17180,931
17182,931
17184,931
17186,932
17188,931
17190,931
17192,931
17194,931
17196,931
17198,931
17200,931
17202,931
17204,931
17206,931
17208,931
17210,931
17213,931
17215,931
17217,931
17219,931
17221,931
17223,931
17225,931
17227,931
17229,931
17231,931
17233,931
17235,931
17237,931
17239,931
17241,931
17243,931
17245,931
17247,931
17249,931
17251,931
17253,931
17255,931
17257,931
17259,931
17261,931
17263,931
17265,931
17267,931
17269,931
17271,926
17273,886
17275,846
17277,810
17279,775
17281,742
17283,733
17285,755
17287,751
17289,775
17291,750
17293,719
17295,691
17298,662
17300,633
17302,610
17304,614
17306,628
17308,616
17310,630
17312,637
17314,633
17316,629
17318,637
17320,630
17322,634
17324,653
17326,642
17328,656
17330,641
17332,624
17334,600
17336,579
17338,560
17341,540
17343,518
17345,500
17347,497
17349,497
17351,487
17353,489
17355,481
17357,471
17359,480
17361,520
17363,522
17365,582
17367,596
17369,598
17371,580
17373,573
17375,582
17377,563
17379,560
17381,545
17383,539
17385,527
17387,553
17389,550
17391,587
17393,605
17395,609
17397,644
17399,647
17401,670
17403,676
17405,682
17407,705
17409,694
17411,694
17413,689
17415,679
17417,692
17419,685
17421,694
17423,672
17426,649
17428,631
17430,608
17432,591
17434,569
17436,549
17438,617
17440,625
17442,699
17444,722
17446,748
17448,813
17450,810
17452,867
17454,875
17456,844
17458,816
17460,793
17462,760
17464,726
17466,696
17469,667
17471,638
17473,616
17475,592
17477,584
17479,616
17481,627
17483,617
17485,633
17487,642
17489,667
17491,665
17493,648
17495,644
17497,631
17499,628
17501,617
17503,617
17505,654
17507,666
17509,733
17511,733
17513,718
17515,690
17517,662
17519,637
17521,624
17523,610
17525,589
17527,578
17529,556
17531,532
17533,510
17535,493
17537,478
17539,461
17541,450
17543,449
17545,433
17547,433
17549,426
17551,415
17554,404
17556,399
17558,390
17560,418
17562,481
17564,492
17566,558
17568,611
17570,600
17572,601
17574,713
17576,811
17578,874
17580,931
17582,931
17584,931
17586,931
17588,929
17590,915
17592,896
17594,858
17597,819
17599,785
17601,759
17603,748
17605,741
17607,711
17609,696
17611,673
17613,679
17615,696
17617,673
17619,644
17621,615
17623,593
17625,595
17627,577
17629,576
17631,565
17633,575
17635,571
17637,550
17639,539
17641,580
17643,658
17645,674
17647,780
17649,877
17651,893
17653,877
17655,931
17657,931
17659,931
17661,931
17663,931
17665,931
17667,931
17669,931
17671,931
17673,931
17675,931
17677,931
17679,931
17682,931
17684,930
17686,906
17688,873
17690,848
17692,818
17694,784
17696,754
17698,762
17700,793
17702,850
17704,852
17706,922
17708,931
17710,931
17712,931
17714,902
17716,870
17718,849
17720,823
17722,792
17725,783
17727,774
17729,749
17731,736
17733,714
17735,685
17737,654
17739,680
17741,719
17743,724
17745,785
17747,801
17749,877
17751,882
17753,922
17755,931
17757,931
17759,931
17761,930
17763,920
17765,884
17767,870
17769,849
17771,820
17773,786
17775,760
17777,787
17779,800
17781,783
17783,819
17785,824
17787,793
17789,769
17791,773
17793,766
17795,748
17797,765
17799,765
17801,788
17803,931
17805,931
17807,931
17810,931
17812,931
17814,931
17816,931
17818,931
17820,931
17822,931
17824,931
17826,931
17828,931
17830,931
17832,931
17834,931
17836,921
17838,888
17840,859
17842,831
17844,797
17846,763
17848,731
17850,736
17853,779
17855,771
17857,772
17859,778
17861,758
17863,754
17865,730
17867,739
17869,753
17871,753
17873,766
17875,755
17877,786
17879,802
17881,772
17883,744
17885,725
17887,733
17889,740
17891,718
17893,692
17895,684
17897,672
17899,667
17901,644
17903,628
17905,603
17907,592
17909,579
17911,556
17913,533
17915,513
17917,519
17919,580
17921,658
17923,659
17925,729
17927,830
17929,841
17931,813
17933,786
17935,758
17938,768
17940,822
17942,840
17944,838
17946,892
17948,888
17950,881
17952,854
17954,856
17956,858
17958,839
17960,836
17962,809
17964,803
17966,778
17968,744
17970,725
17972,739
17974,757
17976,736
17978,727
17981,723
17983,706
17985,692
17987,673
17989,668
17991,667
17993,645
17995,645
17997,646
17999,630
18001,612
18003,591
18005,565
18007,543
18009,524
18011,520
18013,546
18015,565
18017,556
18019,538
18021,537
18023,546
18025,575
18027,583
18029,560
18031,538
18033,515
18035,523
18037,598
18039,655
18041,652
18043,709
18045,766
18047,764
18049,738
18051,705
18053,675
18055,646
18057,624
18059,603
18061,584
18063,600
18066,617
18068,605
18070,629
18072,629
18074,607
18076,584
18078,564
18080,543
18082,520
18084,503
18086,496
18088,511
18090,526
18092,511
18094,511
18096,511
18098,507
18100,513
18102,498
18104,511
18106,538
18109,528
18111,557
18113,585
18115,582
18117,563
18119,538
18121,517
18123,499
18125,483
18127,469
18129,455
18131,441
18133,426
18135,410
18137,394
18139,384
18141,400
18143,425
18145,421
18147,432
18149,460
18151,468
18153,463
18155,494
18157,535
18159,531
18161,572
18163,626
18165,623
18167,598
18169,574
18171,551
18173,535
18175,513
18177,498
18179,481
18181,464
18183,445
18185,427
18187,410
18189,395
18191,379
18194,363
18196,348
18198,332
18200,320
18202,311
18204,300
18206,287
18208,278
18210,282
18212,287
18214,280
18216,289
18218,296
18220,291
18222,281
18224,269
18226,262
18228,253
18230,248
18232,244
18234,235
18237,230
18239,226
18241,220
18243,211
18245,203
18247,195
18249,190
18251,188
18253,182
18255,180
18257,179
18259,173
18261,166
18263,162
18265,158
18267,153
18269,148
18271,142
18273,136
18275,136
18277,135
18279,133
18281,128
18283,124
18285,125
18287,123
18289,119
18291,115
18293,111
18295,106
18297,102
18299,98
18301,94
18303,92
18305,89
18307,86
18309,87
18311,84
18313,82
18315,81
18317,80
18319,77
18322,74
18324,72
18326,70
18328,67
18330,65
18332,62
18334,61
18336,60
18338,57
18340,57
18342,55
18344,53
18346,54
18348,53
18350,53
18352,55
18354,56
18356,61
18358,65
18360,65
18362,63
18365,63
18367,65
18369,63
18371,62
18373,60
18375,58
18377,62
18379,63
18381,67
18383,67
18385,73
18387,75
18389,75
18391,78
18393,85
18395,85
18397,85
18399,87
18401,85
18403,83
18405,83
18407,83
18409,85
18411,84
18413,85
18415,87
18417,89
18419,90
18421,92
18423,95
18425,94
18427,93
18429,93
18431,91
18433,97
18435,97
18437,103
18439,101
18441,97
18443,100
18445,99
18447,102
18450,110
18452,108
18454,110
18456,112
18458,118
18460,117
18462,123
18464,124
18466,125
18468,125
18470,121
18472,120
18474,123
18476,127
18478,128
18480,128
18482,132
18484,128
18486,127
18488,131
18490,138
18493,137
18495,139
18497,139
18499,143
18501,142
18503,145
18505,139
18507,145
18509,146
18511,141
18513,144
18515,142
18517,143
18519,148
18521,150
18523,149
18525,149
18527,166
18529,164
18531,167
18533,167
18535,164
18537,170
18539,172
18541,173
18543,167
18545,163
18547,158
18549,166
18551,175
18553,187
18555,191
18557,189
18559,192
18561,198
18563,198
18565,212
18567,214
18569,210
18571,209
18573,204
18575,208
18578,214
18580,221
18582,231
18584,237
18586,235
18588,233
18590,236
18592,229
18594,222
18596,227
18598,222
18600,220
18602,224
18604,240
18606,247
18608,251
18610,254
18612,252
18614,251
18616,250
18618,241
18621,238
18623,231
18625,234
18627,230
18629,223
18631,218
18633,216
18635,218
18637,228
18639,237
18641,240
18643,245
18645,238
18647,231
18649,226
18651,221
18653,212
18655,206
18657,199
18659,191
18661,184
18663,180
18665,172
18667,174
18669,170
18671,170
18673,163
18675,159
18677,155
18679,153
18681,149
18683,145
18685,139
18687,133
18689,129
18691,128
18693,125
18695,125
18697,121
18699,117
18701,123
18703,136
18706,146
18708,143
18710,155
18712,162
18714,156
18716,151
18718,148
18720,144
18722,152
18724,166
18726,173
18728,180
18730,204
18732,206
18734,235
18736,247
18738,271
18740,324
18742,330
18744,345
18746,351
18749,355
18751,381
18753,380
18755,389
18757,422
18759,457
18761,473
18763,460
18765,445
18767,428
18769,423
18771,427
18773,424
18775,424
18777,431
18779,420
18781,410
18783,439
18785,490
18787,534
18789,531
18791,538
18793,578
18795,577
18797,587
18799,592
18801,614
18803,708
18805,758
18807,749
18809,802
18811,854
18813,839
18815,840
18817,833
18819,805
18821,781
18823,761
18825,738
18827,781
18829,854
18831,878
18834,853
18836,848
18838,848
18840,833
18842,860
18844,931
18846,931
18848,931
18850,931
18852,931
18854,931
18856,931
18858,931
18860,931
18862,931
18864,931
18866,931
18868,931
18870,931
18872,931
18874,931
18877,931
18879,931
18881,931
18883,931
18885,931
18887,931
18889,931
18891,931
18893,931
18895,931
18897,931
18899,931
18901,931
18903,931
18905,931
18907,931
18909,931
18911,931
18913,931
18915,931
18917,931
18919,931
18921,931
18923,931
18925,931
18927,931
18929,931
18931,931
18933,931
18935,931
18937,931
18939,931
18941,931
18943,931
18945,931
18947,931
18949,931
18951,931
18953,931
18955,931
18957,931
18959,931
18962,931
18964,931
18966,931
18968,931
18970,931
18972,931
18974,931
18976,931
18978,931
18980,931
18982,931
18984,931
18986,931
18988,931
18990,931
18992,931
18994,931
18996,931
18998,931
19000,931
19002,931
19005,931
19007,931
19009,931
19011,931
19013,931
19015,931
19017,932
19019,931
19021,931
19023,931
19025,931
19027,931
19029,931
19031,931
19033,932
19035,931
19037,932
19039,931
19041,931
19043,932
19045,931
19047,932
19049,931
19051,931
19053,931
19055,931
19057,931
19059,931
19061,931
19063,931
19065,931
19067,931
19069,931
19071,931
19073,931
19075,931
19077,931
19079,931
19081,931
19083,931
19085,931
19087,931
19090,931
19092,931
19094,931
19096,931
19098,931
19100,931
19102,931
19104,931
19106,932
19108,931
19110,931
19112,931
19114,932
19116,931
19118,931
19120,931
19122,931
19124,932
19126,931
19128,931
19130,931
19133,931
19135,931
19137,932
19139,932
19141,931
19143,931
19145,932
19147,932
19149,932
19151,931
19153,931
19155,932
19157,932
19159,931
19161,932
19163,931
19165,931
19167,931
19169,932
19171,932
19173,931
19175,932
19177,932
19179,932
19181,931
19183,931
19185,931
19187,931
19189,931
19191,931
19193,931
19195,931
19197,931
19199,932
19201,931
19203,932
19205,932
19207,931
19209,931
19211,931
19213,931
19215,932
19218,931
19220,931
19222,932
19224,932
19226,931
19228,931
19230,931
19232,931
19234,931
19236,931
19238,931
19240,931
19242,931
19244,932
19246,932
19248,931
19250,932
19252,931
19254,931
19256,932
19258,931
19261,932
19263,931
19265,931
19267,932
19269,931
19271,932
19273,932
19275,932
19277,931
19279,931
19281,932
19283,932
19285,932
19287,932
19289,932
19291,931
19293,931
19295,932
19297,932
19299,931
19301,931
19303,932
19305,931
19307,932
19309,931
19311,932
19313,931
19315,931
19317,931
19319,932
19321,932
19323,931
19325,932
19327,932
19329,932
19331,931
19333,931
19335,932
19337,932
19339,931
19341,932
19343,931
19346,931
19348,931
19350,931
19352,931
19354,931
19356,931
19358,932
19360,931
19362,931
19364,931
19366,931
19368,931
19370,931
19372,931
19374,932
19376,931
19378,931
19380,931
19382,931
19384,931
19386,931
19389,931
19391,931
19393,932
19395,931
19397,931
19399,931
19401,931
19403,931
19405,931
19407,931
19409,931
19411,931
19413,931
19415,932
19417,931
19419,931
19421,931
19423,931
19425,931
19427,931
19429,931
19431,931
19433,932
19435,931
19437,931
19439,931
19441,931
19443,931
19445,931
19447,931
19449,931
19451,931
19453,931
19455,931
19457,931
19459,931
19461,931
19463,931
19465,931
19467,931
19469,931
19471,931
19474,931
19476,931
19478,931
19480,931
19482,931
19484,931
19486,931
19488,931
19490,931
19492,931
19494,931
19496,931
19498,931
19500,931
19502,931
19504,931
19506,931
19508,931
19510,931
19512,931
19514,931
19517,931
19519,931
19521,931
19523,931
19525,931
19527,931
19529,931
19531,931
19533,931
19535,931
19537,931
19539,931
19541,931
19543,912
19545,869
19547,835
19549,803
19551,772
19553,747
19555,717
19557,694
19559,682
19561,656
19563,741
19565,729
19567,722
19569,720
19571,699
19573,686
19575,683
19577,694
19579,737
19581,726
19583,714
19585,689
19587,669
19589,672
19591,671
19593,672
19595,662
19597,653
19599,633
19602,608
19604,592
19606,570
19608,546
19610,523
19612,500
19614,511
19616,559
19618,577
19620,655
19622,649
19624,627
19626,604
19628,582
19630,558
19632,565
19634,571
19636,567
19638,580
19640,562
19642,539
19645,517
19647,507
19649,550
19651,545
19653,579
19655,569
19657,551
19659,555
19661,541
19663,522
19665,504
19667,493
19669,479
19671,467
19673,458
19675,443
19677,425
19679,411
19681,394
19683,379
19685,382
19687,383
19689,387
19691,381
19693,399
19695,415
19697,400
19699,386
19701,421
19703,437
19705,473
19707,509
19709,499
19711,482
19713,470
19715,462
19717,471
19719,455
19721,446
19723,435
19725,416
19727,402
19730,392
19732,376
19734,494
19736,489
19738,488
19740,491
19742,490
19744,472
19746,455
19748,445
19750,432
19752,429
19754,417
19756,407
19758,411
19760,446
19762,454
19764,498
19766,545
19768,537
19770,533
19773,521
19775,536
19777,528
19779,543
19781,543
19783,588
19785,608
19787,646
19789,649
19791,713
19793,716
19795,712
19797,760
19799,773
19801,757
19803,738
19805,709
19807,678
19809,649
19811,626
19813,609
19815,597
19817,579
19819,603
19821,687
19823,700
19825,788
19827,806
19829,798
19831,768
19833,740
19835,728
19837,703
19839,685
19841,663
19843,666
19845,651
19847,644
19849,648
19851,647
19853,622
19855,603
19858,583
19860,571
19862,558
19864,560
19866,541
19868,527
19870,508
19872,486
19874,471
19876,452
19878,434
19880,424
19882,421
19884,410
19886,403
19888,393
19890,380
19892,379
19894,375
19896,380
19898,402
19901,407
19903,414
19905,423
19907,432
19909,489
19911,515
19913,575
19915,633
19917,638
19919,698
19921,703
19923,739
19925,737
19927,796
19929,809
19931,791
19933,772
19935,746
19937,719
19939,693
19941,673
19943,681
19945,693
19947,668
19949,668
19951,662
19953,648
19955,627
19957,603
19959,581
19961,557
19963,533
19965,514
19967,505
19969,521
19971,521
19973,540
19975,534
19977,568
19979,575
19981,560
19983,557
19986,567
19988,555
19990,541
19992,519
19994,509
19996,513
19998,500
20000,486
20002,475
20004,512
20006,514
20008,509
20010,500
20012,516
20014,549
20016,580
20018,586
20020,567
20022,553
20024,550
20026,538
20029,516
20031,496
20033,479
20035,466
20037,463
20039,506
20041,523
20043,542
20045,604
20047,629
20049,605
20051,583
20053,567
20055,552
20057,554
20059,574
20061,562
20063,565
20065,606
20067,602
20069,667
20071,707
20073,724
20075,718
20077,696
20079,675
20081,649
20083,629
20085,604
20087,585
20089,560
20091,542
20093,522
20095,500
20097,485
20099,476
20101,461
20103,465
20105,468
20107,475
20109,486
20111,496
20114,482
20116,474
20118,513
20120,597
20122,607
20124,708
20126,795
20128,782
20130,754
20132,721
20134,689
20136,658
20138,630
20140,614
20142,638
20144,682
20146,679
20148,660
20150,669
20152,673
20154,689
20157,693
20159,671
20161,643
20163,615
20165,588
20167,571
20169,573
20171,590
20173,591
20175,582
20177,571
20179,580
20181,571
20183,568
20185,579
20187,565
20189,544
20191,526
20193,523
20195,512
20197,508
20199,514
20201,550
20203,560
20205,585
20207,691
20209,794
20211,791
20213,778
20215,759
20217,740
20219,723
20221,704
20223,683
20225,663
20227,643
20229,624
20231,604
20233,584
20235,564
20237,543
20239,521
20242,508
20244,508
20246,493
20248,481
20250,467
20252,468
20254,472
20256,493
20258,484
20260,521
20262,590
20264,623
20266,604
20268,581
20270,577
20272,573
20274,553
20276,533
20278,532
20280,548
20282,534
20285,535
20287,532
20289,512
20291,492
20293,480
20295,463
20297,447
20299,452
20301,489
20303,486
20305,511
20307,554
20309,556
20311,539
20313,517
20315,494
20317,472
20319,453
20321,436
20323,418
20325,403
20327,399
20329,400
20331,396
20333,382
20335,371
20337,374
20339,375
20341,368
20343,365
20345,388
20347,398
20349,395
20351,422
20353,447
20355,463
20357,463
20359,447
20361,428
20363,420
20365,425
20367,416
20370,415
20372,420
20374,406
20376,395
20378,382
20380,369
20382,359
20384,354
20386,349
20388,342
20390,336
20392,324
20394,319
20396,320
20398,308
20400,305
20402,311
20404,318
20406,322
20408,332
20410,325
20413,338
20415,371
20417,398
20419,399
20421,389
20423,383
20425,370
20427,357
20429,347
20431,336
20433,350
20435,413
20437,475
20439,477
20441,529
20443,596
20445,622
20447,614
20449,592
20451,566
20453,546
20455,537
20457,522
20459,506
20461,490
20463,475
20465,459
20467,443
20469,426
20471,408
20473,391
20475,373
20477,357
20479,342
20481,327
20483,315
20485,323
20487,352
20489,360
20491,364
20493,398
20495,420
20498,416
20500,400
20502,389
20504,379
20506,364
20508,353
20510,339
20512,332
20514,340
20516,364
20518,376
20520,373
20522,405
20524,434
20526,426
20528,409
20530,391
20532,376
20534,362
20536,350
20538,339
20541,326
20543,313
20545,299
20547,286
20549,274
20551,264
20553,253
20555,242
20557,232
20559,222
20561,212
20563,204
20565,196
20567,188
20569,180
20571,172
20573,165
20575,159
20577,154
20579,148
20581,142
20583,138
20585,133
20587,128
20589,125
20591,121
20593,116
20595,112
20597,108
20599,104
20601,100
20603,99
20605,98
20607,95
20609,91
20611,88
20613,87
20615,86
20617,83
20619,80
20621,79
20623,77
20626,75
20628,73
20630,70
20632,68
20634,65
20636,65
20638,64
20640,63
20642,61
20644,63
20646,62
20648,60
20650,58
20652,57
20654,55
20656,53
20658,52
20660,53
20662,53
20664,51
20666,49
20669,48
20671,46
20673,45
20675,44
20677,42
20679,42
20681,42
20683,40
20685,40
20687,38
20689,38
20691,37
20693,36
20695,36
20697,35
20699,34
20701,33
20703,34
20705,33
20707,33
20709,32
20711,31
20713,32
20715,39
20717,40
20719,44
20721,43
20723,43
20725,42
20727,43
20729,43
20731,43
20733,44
20735,45
20737,48
20739,51
20741,53
20743,54
20745,57
20747,60
20749,66
20751,65
20754,64
20756,68
20758,66
20760,66
20762,66
20764,66
20766,70
20768,72
20770,70
20772,68
20774,71
20776,70
20778,68
20780,66
20782,65
20784,64
20786,65
20788,65
20790,63
20792,61
20794,67
20797,70
20799,81
20801,91
20803,99
20805,105
20807,114
20809,119
20811,122
20813,124
20815,124
20817,120
20819,124
20821,127
20823,125
20825,126
20827,121
20829,120
20831,116
20833,112
20835,113
20837,111
20839,115
20841,118
20843,118
20845,122
20847,131
20849,145
20851,146
20853,159
20855,161
20857,160
20859,323
20861,342
20863,345
20865,355
20867,350
20869,339
20871,337
20873,334
20875,325
20877,324
20879,316
20882,323
20884,314
20886,302
20888,289
20890,280
20892,278
20894,276
20896,270
20898,264
20900,253
20902,259
20904,256
20906,255
20908,268
20910,264
20912,266
20914,267
20916,262
20918,264
20920,261
20922,260
20925,265
20927,263
20929,262
20931,254
20933,248
20935,250
20937,258
20939,259
20941,257
20943,249
20945,242
20947,235
20949,231
20951,227
20953,226
20955,224
20957,217
20959,208
20961,200
20963,197
20965,201
20967,203
20969,195
20971,192
20973,192
20975,205
20977,206
20979,220
20981,215
20983,208
20985,202
20987,196
20989,198
20991,197
20993,198
20995,199
20997,202
20999,203
21001,197
21003,191
21005,188
21007,182
21010,181
21012,176
21014,181
21016,178
21018,175
21020,172
21022,169
21024,166
21026,168
21028,169
21030,167
21032,170
21034,165
21036,161
21038,156
21040,162
21042,158
21044,154
21046,151
21048,145
21050,140
21053,143
21055,150
21057,155
21059,150
21061,145
21063,151
21065,151
21067,159
21069,153
21071,147
21073,151
21075,148
21077,152
21079,148
21081,145
21083,143
21085,138
21087,135
21089,134
21091,129
21093,124
21095,121
21097,118
21099,114
21101,110
21103,108
21105,103
21107,99
21109,97
21111,99
21113,100
21115,98
21117,95
21119,241
21121,256
21123,276
21125,293
21127,300
21129,290
21131,288
21133,281
21135,284
21138,298
21140,306
21142,302
21144,318
21146,337
21148,333
21150,349
21152,382
21154,390
21156,376
21158,372
21160,375
21162,407
21164,434
21166,428
21168,469
21170,505
21172,496
21174,503
21176,514
21178,527
21181,517
21183,537
21185,586
21187,594
21189,579
21191,569
21193,544
21195,539
21197,583
21199,652
21201,669
21203,669
21205,719
21207,785
21209,807
21211,786
21213,790
21215,808
21217,849
21219,873
21221,858
21223,878
21225,930
21227,930
21229,905
21231,868
21233,840
21235,832
21237,808
21239,800
21241,789
21243,761
21245,738
21247,752
21249,774
21251,793
21253,791
21255,788
21257,835
21259,825
21261,872
21263,889
21266,931
21268,931
21270,931
21272,931
21274,931
21276,931
21278,931
21280,931
21282,931
21284,931
21286,931
21288,931
21290,931
21292,931
21294,931
21296,931
21298,931
21300,931
21302,931
21304,931
21306,931
21309,931
21311,931
21313,931
21315,931
21317,931
21319,931
21321,931
21323,931
21325,931
21327,931
21329,931
21331,931
21333,931
21335,931
21337,931
21339,931
21341,931
21343,931
21345,931
21347,931
21349,931
21351,931
21353,931
21355,931
21357,931
21359,931
21361,931
21363,931
21365,931
21367,931
21369,931
21371,931
21373,931
21375,931
21377,931
21379,931
21381,931
21383,931
21385,931
21387,931
21389,931
21391,931
21394,931
21396,931
21398,931
21400,931
21402,931
21404,931
21406,931
21408,931
21410,931
21412,931
21414,931
21416,931
21418,931
21420,931
21422,931
21424,931
21426,931
21428,931
21430,931
21432,931
21434,931
21437,931
21439,931
21441,931
21443,931
21445,931
21447,931
21449,931
21451,931
21453,931
21455,931
21457,931
21459,931
21461,931
21463,931
21465,931
21467,931
21469,931
21471,931
21473,931
21475,931
21477,931
21479,931
21481,931
21483,931
21485,931
21487,932
21489,931
21491,931
21493,931
21495,931
21497,931
21499,931
21501,931
21503,931
21505,931
21507,931
21509,931
21511,931
21513,932
21515,931
21517,931
21519,931
21522,931
21524,931
21526,931
21528,932
21530,931
21532,931
21534,932
21536,931
21538,931
21540,931
21542,931
21544,932
21546,931
21548,932
21550,931
21552,932
21554,932
21556,931
21558,931
21560,932
21562,931
21565,931
21567,932
21569,932
21571,931
21573,931
21575,932
21577,932
21579,932
21581,931
21583,931
21585,932
21587,932
21589,932
21591,931
21593,931
21595,931
21597,931
21599,932
21601,931
21603,931
21605,932
21607,932
21609,931
21611,931
21613,932
21615,931
21617,932
21619,932
21621,932
21623,932
21625,931
21627,932
21629,931
21631,931
21633,931
21635,931
21637,931
21639,932
21641,932
21643,931
21645,931
21647,932
21650,931
21652,931
21654,931
21656,931
21658,932
21660,931
21662,931
21664,932
21666,931
21668,931
21670,931
21672,932
21674,931
21676,932
21678,932
21680,931
21682,931
21684,931
21686,932
21688,932
21690,932
21693,932
21695,932
21697,932
21699,931
21701,932
21703,931
21705,931
21707,932
21709,931
21711,932
21713,932
21715,931
21717,931
21719,931
21721,932
21723,931
21725,932
21727,932
21729,931
21731,932
21733,931
21735,931
21737,932
21739,932
21741,932
21743,931
21745,932
21747,931
21749,931
21751,931
21753,931
21755,932
21757,931
21759,931
21761,931
21763,931
21765,931
21767,932
21769,932
21771,932
21773,931
21775,931
21778,931
21780,931
21782,931
21784,931
21786,931
21788,931
21790,931
21792,932
21794,932
21796,931
21798,932
21800,931
21802,931
21804,932
21806,931
21808,932
21810,931
21812,931
21814,931
21816,932
21818,931
21821,932
21823,932
21825,931
21827,932
21829,932
21831,932
21833,932
21835,931
21837,932
21839,931
21841,931
21843,931
21845,931
21847,931
21849,931
21851,931
21853,931
21855,931
21857,931
21859,931
21861,931
21863,931
21865,931
21867,931
21869,931
21871,931
21873,931
21875,931
21877,931
21879,931
21881,931
21883,931
21885,931
21887,931
21889,931
21891,931
21893,931
21895,931
21897,931
21899,931
21901,931
21903,931
21906,931
21908,931
21910,931
21912,931
21914,931
21916,931
21918,931
21920,931
21922,926
21924,925
21926,900
21928,906
21930,891
21932,904
21934,914
21936,922
21938,931
21940,931
21942,931
21944,931
21946,931
21949,931
21951,931
21953,931
21955,931
21957,931
21959,931
21961,931
21963,931
21965,931
21967,931
21969,931
21971,930
21973,912
21975,931
21977,931
21979,931
21981,931
21983,931
21985,931
21987,931
21989,931
21991,931
21993,931
21995,931
21997,931
21999,931
22001,931
22003,931
22005,931
22007,931
22009,931
22011,931
22013,931
22015,931
22017,931
22019,931
22021,930
22023,905
22025,887
22027,877
22029,842
22031,807
22034,789
22036,816
22038,812
22040,865
22042,847
22044,831
22046,852
22048,841
22050,862
22052,887
22054,869
22056,870
22058,847
22060,810
22062,776
22064,742
22066,709
22068,678
22070,649
22072,623
22074,598
22077,572
22079,548
22081,524
22083,505
22085,485
22087,492
22089,551
22091,570
22093,644
22095,650
22097,705
22099,699
22101,693
22103,667
22105,676
22107,721
22109,728
22111,755
22113,736
22115,729
22117,731
22119,728
22121,751
22123,739
22125,730
22127,707
22129,687
22131,680
22133,663
22135,668
22137,676
22139,661
22141,650
22143,626
22145,632
22147,765
22149,781
22151,842
22153,826
22155,798
22157,768
22159,739
22162,723
22164,698
22166,681
22168,673
22170,784
22172,809
22174,882
22176,912
22178,883
22180,851
22182,820
22184,794
22186,802
22188,783
22190,788
22192,763
22194,732
22196,704
22198,675
22200,657
22202,649
22205,627
22207,630
22209,635
22211,612
22213,590
22215,574
22217,562
22219,575
22221,661
22223,678
22225,794
22227,839
22229,834
22231,801
22233,783
22235,781
22237,750
22239,729
22241,723
22243,716
22245,726
22247,744
22249,763
22251,774
22253,811
22255,798
22257,824
22259,807
22261,779
22263,748
22265,720
22267,728
22269,717
22271,715
22273,727
22275,706
22277,680
22279,652
22281,657
22283,773
22285,780
22287,802
22290,845
22292,838
22294,834
22296,845
22298,928
22300,929
22302,931
22304,931
22306,931
22308,931
22310,931
22312,931
22314,931
22316,920
22318,904
22320,871
22322,850
22324,825
22326,805
22328,774
22330,740
22333,708
22335,677
22337,680
22339,673
22341,666
22343,688
22345,684
22347,663
22349,672
22351,730
22353,746
22355,762
22357,773
22359,842
22361,906
22363,884
22365,851
22367,845
22369,899
22371,888
22373,915
22375,929
22377,931
22379,931
22381,931
22383,931
22385,930
22387,921
22389,898
22391,897
22393,870
22395,872
22397,862
22399,825
22401,788
22403,753
22405,723
22407,744
22409,762
22411,751
22413,792
22415,795
22418,797
22420,806
22422,788
22424,807
22426,804
22428,784
22430,844
22432,883
22434,854
22436,826
22438,800
22440,798
22442,884
22444,923
22446,889
22448,850
22450,814
22452,784
22454,764
22456,758
22458,811
22461,845
22463,845
22465,899
22467,896
22469,864
22471,833
22473,797
22475,764
22477,736
22479,706
22481,676
22483,647
22485,624
22487,603
22489,587
22491,620
22493,630
22495,618
22497,625
22499,622
22501,613
22503,605
22505,600
22507,623
22509,642
22511,670
22513,665
22515,645
22517,620
22519,596
22521,583
22523,571
22525,573
22527,580
22529,569
22531,558
22533,566
22535,561
22537,541
22539,525
22541,510
22543,526
22546,539
22548,529
22550,554
22552,571
22554,554
22556,559
22558,605
22560,647
22562,630
22564,628
22566,655
22568,669
22570,681
22572,679
22574,673
22576,693
22578,692
22580,681
22582,686
22584,667
22586,647
22589,644
22591,651
22593,640
22595,614
22597,589
22599,569
22601,559
22603,564
22605,562
22607,542
22609,532
22611,515
22613,500
22615,479
22617,458
22619,445
22621,484
22623,543
22625,545
22627,590
22629,597
22631,627
22633,657
22635,676
22637,766
22639,816
22641,810
22643,794
22645,782
22647,783
22649,767
22651,737
22653,709
22655,687
22657,688
22659,675
22661,645
22663,619
22665,594
22667,576
22669,563
22671,548
22674,531
22676,513
22678,494
22680,486
22682,486
22684,482
22686,475
22688,481
22690,499
22692,509
22694,510
22696,516
22698,511
22700,525
22702,569
22704,612
22706,625
22708,688
22710,693
22712,793
22714,930
22717,931
22719,931
22721,931
22723,931
22725,927
22727,906
22729,884
22731,862
22733,838
22735,811
22737,781
22739,751
22741,721
22743,691
22745,662
22747,634
22749,608
22751,588
22753,572
22755,566
22757,552
22759,541
22761,526
22763,517
22765,548
22767,580
22769,581
22771,649
22773,693
22775,677
22777,671
22779,651
22781,635
22783,633
22785,617
22787,592
22789,570
22791,551
22793,534
22795,515
22797,494
22799,473
22802,456
22804,437
22806,418
22808,401
22810,384
22812,369
22814,360
22816,367
22818,389
22820,399
22822,403
22824,396
22826,417
22828,448
22830,478
22832,485
22834,467
22836,450
22838,436
22840,436
22842,443
22845,441
22847,426
22849,418
22851,408
22853,396
22855,385
22857,372
22859,373
22861,372
22863,358
22865,345
22867,332
22869,320
22871,307
22873,295
22875,283
22877,272
22879,260
22881,249
22883,238
22885,228
22887,223
22889,213
22891,204
22893,196
22895,188
22897,183
22899,177
22901,170
22903,164
22905,157
22907,153
22909,148
22911,142
22913,137
22915,133
22917,130
22919,128
22921,123
22923,120
22925,121
22927,123
22930,120
22932,123
22934,130
22936,126
22938,121
22940,120
22942,123
22944,119
22946,118
22948,115
22950,112
22952,110
22954,110
22956,105
22958,103
22960,101
22962,97
22964,94
22966,90
22968,88
22970,87
22973,85
22975,206
22977,220
22979,233
22981,240
22983,242
22985,243
22987,243
22989,239
22991,233
22993,228
22995,228
22997,221
22999,212
23001,203
23003,195
23005,186
23007,180
23009,174
23011,170
23013,163
23015,160
23017,154
23019,148
23021,143
23023,137
23025,134
23027,129
23029,125
23031,121
23033,120
23035,117
23037,113
23039,109
23041,109
23043,105
23045,102
23047,99
23049,97
23051,94
23053,90
23055,88
23058,86
23060,85
23062,86
23064,88
23066,86
23068,85
23070,84
23072,85
23074,87
23076,84
23078,82
23080,83
23082,82
23084,84
23086,87
23088,96
23090,95
23092,100
23094,99
23096,100
23098,96
23101,94
23103,93
23105,108
23107,108
23109,106
23111,104
23113,106
23115,111
23117,111
23119,108
23121,109
23123,106
23125,107
23127,112
23129,112
23131,113
23133,119
23135,136
23137,137
23139,136
23141,141
23143,142
23145,137
23147,134
23149,134
23151,129
23153,137
23155,155
23157,159
23159,164
23161,165
23163,159
23165,160
23167,170
23169,180
23171,187
23173,192
23175,193
23177,196
23179,196
23181,199
23183,196
23186,191
23188,188
23190,181
23192,174
23194,182
23196,185
23198,185
23200,185
23202,187
23204,184
23206,180
23208,180
23210,193
23212,202
23214,220
23216,216
23218,211
23220,203
23222,198
23224,199
23226,195
23229,195
23231,196
23233,198
23235,194
23237,200
23239,203
23241,203
23243,208
23245,228
23247,224
23249,217
23251,212
23253,206
23255,199
23257,192
23259,192
23261,187
23263,187
23265,190
23267,189
23269,202
23271,206
23273,201
23275,197
23277,189
23279,192
23281,190
23283,188
23285,188
23287,189
23289,198
23291,199
23293,196
23295,191
23297,184
23299,178
23301,184
23303,178
23305,172
23307,165
23309,159
23311,158
23314,158
23316,165
23318,160
23320,156
23322,159
23324,157
23326,151
23328,147
23330,142
23332,136
23334,131
23336,125
23338,121
23340,120
23342,116
23344,114
23346,114
23348,117
23350,121
23352,131
23354,136
23357,134
23359,130
23361,126
23363,122
23365,117
23367,113
23369,108
23371,105
23373,103
23375,105
23377,111
23379,115
23381,116
23383,116
23385,126
23387,130
23389,148
23391,181
23393,188
23395,202
23397,226
23399,229
