Timestamp (ms),EMG Value
0,860
2,931
4,931
6,931
8,931
10,932
12,931
14,931
16,931
18,931
20,931
22,931
24,932
26,932
28,931
30,931
32,931
34,931
36,931
38,931
40,931
42,931
44,931
46,931
48,931
50,931
52,932
54,931
56,932
58,931
61,931
63,931
65,931
67,931
69,932
71,931
73,932
75,931
77,931
79,931
81,931
83,931
85,931
87,931
89,931
91,931
93,932
95,931
97,931
99,931
101,931
103,931
105,931
107,931
109,931
111,931
113,931
115,931
117,931
119,931
121,931
123,931
125,931
127,931
129,931
131,931
133,931
135,931
137,931
139,931
141,931
143,931
146,931
148,931
150,931
152,931
154,931
156,931
158,931
160,931
162,931
164,931
166,931
168,931
170,931
172,930
174,897
176,857
178,819
180,783
182,749
184,715
186,683
189,653
191,623
193,597
195,614
197,885
199,913
201,930
203,930
205,930
207,914
209,894
211,871
213,843
215,815
217,785
219,753
221,724
223,694
225,663
227,634
229,607
231,758
233,860
235,879
237,879
239,873
241,858
243,838
245,814
247,787
249,759
251,732
253,706
255,678
257,649
259,620
261,727
263,723
265,718
267,704
269,687
271,666
274,643
276,619
278,599
280,575
282,549
284,527
286,505
288,485
290,465
292,445
294,426
296,408
298,390
300,373
302,360
304,344
306,330
308,316
310,305
312,293
314,280
317,268
319,257
321,247
323,237
325,228
327,219
329,210
331,202
333,193
335,186
337,179
339,172
341,165
343,158
345,152
347,148
349,142
351,137
353,133
355,128
357,123
359,121
361,116
363,112
365,108
367,104
369,100
371,98
373,95
375,93
377,91
379,89
381,86
383,83
385,83
387,80
389,77
391,74
393,73
395,70
397,68
399,65
402,65
404,64
406,62
408,60
410,59
412,57
414,55
416,53
418,52
420,51
422,50
424,49
426,47
428,46
430,45
432,46
434,48
436,52
438,52
440,53
442,52
445,50
447,48
449,47
451,46
453,146
455,175
457,326
459,362
461,385
463,400
465,407
467,410
469,415
471,415
473,399
475,381
477,365
479,351
481,339
483,325
485,312
487,305
489,294
491,283
493,272
495,262
497,252
499,241
501,231
503,221
505,212
507,204
509,200
511,195
513,187
515,180
517,173
519,167
521,161
523,154
525,148
527,142
530,136
532,130
534,125
536,120
538,116
540,113
542,112
544,108
546,105
548,103
550,105
552,105
554,101
556,97
558,94
560,90
562,87
564,84
566,80
568,78
570,75
573,75
575,72
577,69
579,67
581,65
583,63
585,61
587,59
589,59
591,60
593,62
595,62
597,60
599,59
601,59
603,57
605,55
607,53
609,52
611,51
613,51
615,50
617,50
619,50
621,55
623,60
625,62
627,60
629,63
631,63
633,62
635,61
637,59
639,61
641,66
643,71
645,75
647,75
649,73
651,74
653,78
655,80
658,78
660,75
662,72
664,71
666,75
668,75
670,77
672,82
674,85
676,83
678,80
680,79
682,80
684,80
686,81
688,80
690,78
692,75
694,73
696,70
698,68
701,65
703,63
705,61
707,59
709,59
711,57
713,56
715,55
717,54
719,53
721,52
723,51
725,50
727,48
729,49
731,47
733,47
735,48
737,50
739,50
741,49
743,49
745,48
747,46
749,45
751,44
753,42
755,41
757,40
759,39
761,38
763,38
765,37
767,36
769,37
771,37
773,38
775,38
777,36
779,36
781,35
783,35
786,35
788,35
790,35
792,36
794,37
796,38
798,39
800,38
802,37
804,39
806,46
808,48
810,47
812,45
814,47
816,56
818,60
820,59
822,59
824,63
826,62
829,61
831,62
833,62
835,60
837,59
839,58
841,56
843,55
845,54
847,52
849,52
851,52
853,50
855,49
857,48
859,51
861,50
863,49
865,49
867,48
869,47
871,46
873,46
875,48
877,51
879,51
881,51
883,49
885,48
887,47
889,48
891,51
893,49
895,48
897,53
899,55
901,56
903,55
905,54
907,55
909,54
911,53
914,52
916,51
918,54
920,57
922,57
924,58
926,60
928,63
930,61
932,67
934,66
936,64
938,62
940,60
942,58
944,56
946,55
948,56
950,54
952,52
954,51
957,50
959,48
961,48
963,47
965,46
967,46
969,45
971,45
973,45
975,48
977,48
979,46
981,45
983,44
985,43
987,42
989,41
991,42
993,43
995,46
997,49
999,50
1001,49
1003,48
1005,48
1007,50
1009,51
1011,53
1013,51
1015,50
1017,49
1019,48
1021,46
1023,48
1025,48
1027,49
1029,52
1031,52
1033,51
1035,50
1037,49
1039,47
1042,46
1044,45
1046,43
1048,45
1050,46
1052,51
1054,55
1056,56
1058,57
1060,61
1062,60
1064,62
1066,62
1068,61
1070,59
1072,65
1074,64
1076,63
1078,62
1080,59
1082,60
1085,60
1087,58
1089,57
1091,58
1093,64
1095,69
1097,69
1099,68
1101,67
1103,65
1105,64
1107,63
1109,61
1111,59
1113,58
1115,60
1117,61
1119,61
1121,69
1123,69
1125,71
1127,72
1129,73
1131,74
1133,71
1135,70
1137,71
1139,70
1141,71
1143,70
1145,76
1147,87
1149,86
1151,82
1153,88
1155,94
1157,93
1159,91
1161,88
1163,87
1165,92
1167,99
1170,100
1172,109
1174,110
1176,108
1178,105
1180,102
1182,104
1184,104
1186,103
1188,99
1190,97
1192,95
1194,95
1196,97
1198,237
1200,254
1202,264
1204,282
1206,276
1208,267
1210,261
1213,256
1215,246
1217,245
1219,238
1221,235
1223,232
1225,226
1227,221
1229,218
1231,210
1233,204
1235,197
1237,189
1239,184
1241,179
1243,172
1245,168
1247,166
1249,159
1251,153
1253,148
1255,145
1257,144
1259,139
1261,137
1263,140
1265,142
1267,139
1269,135
1271,130
1273,125
1275,122
1277,122
1279,123
1281,122
1283,119
1285,120
1287,125
1289,125
1291,124
1293,122
1295,119
1298,123
1300,122
1302,118
1304,117
1306,114
1308,109
1310,106
1312,109
1314,107
1316,104
1318,107
1320,104
1322,106
1324,105
1326,111
1328,110
1330,112
1332,112
1334,110
1336,110
1338,108
1341,105
1343,103
1345,103
1347,102
1349,102
1351,101
1353,101
1355,101
1357,99
1359,96
1361,94
1363,93
1365,91
1367,92
1369,90
1371,88
1373,88
1375,99
1377,99
1379,98
1381,108
1383,109
1385,110
1387,108
1389,631
1391,931
1393,931
1395,931
1397,931
1399,931
1401,931
1403,931
1405,931
1407,931
1409,931
1411,931
1413,931
1415,931
1417,931
1419,931
1421,931
1423,931
1426,931
1428,931
1430,931
1432,931
1434,932
1436,931
1438,931
1440,932
1442,931
1444,931
1446,932
1448,932
1450,932
1452,931
1454,931
1456,931
1458,931
1460,931
1462,931
1464,931
1466,931
1469,931
1471,932
1473,931
1475,931
1477,931
1479,931
1481,931
1483,932
1485,932
1487,931
1489,931
1491,932
1493,932
1495,931
1497,931
1499,931
1501,931
1503,931
1505,932
1507,932
1509,932
1511,931
1513,932
1515,932
1517,931
1519,932
1521,931
1523,931
1525,931
1527,932
1529,931
1531,932
1533,931
1535,931
1537,931
1539,931
1541,932
1543,931
1545,931
1547,932
1549,931
1551,932
1554,932
1556,931
1558,932
1560,932
1562,932
1564,931
1566,931
1568,932
1570,932
1572,931
1574,932
1576,932
1578,932
1580,931
1582,932
1584,931
1586,931
1588,931
1590,931
1592,932
1594,931
1597,931
1599,932
1601,931
1603,932
1605,932
1607,931
1609,931
1611,932
1613,931
1615,931
1617,931
1619,931
1621,931
1623,932
1625,932
1627,931
1629,931
1631,931
1633,931
1635,931
1637,932
1639,931
1641,932
1643,932
1645,931
1647,931
1649,931
1651,931
1653,931
1655,931
1657,931
1659,931
1661,931
1663,931
1665,931
1667,931
1669,931
1671,931
1673,931
1675,931
1677,931
1679,931
1682,931
1684,931
1686,931
1688,931
1690,931
1692,931
1694,931
1696,931
1698,931
1700,931
1702,931
1704,931
1706,931
1708,931
1710,931
1712,931
1714,931
1716,931
1718,931
1720,930
1722,931
1725,930
1727,928
1729,931
1731,931
1733,930
1735,930
1737,915
1739,900
1741,922
1743,916
1745,895
1747,891
1749,865
1751,873
1753,859
1755,841
1757,829
1759,801
1761,800
1763,781
1765,778
1767,790
1769,798
1771,773
1773,758
1775,733
1777,726
1779,703
1781,714
1783,740
1785,744
1787,717
1789,697
1791,691
1793,710
1795,750
1797,774
1799,754
1801,765
1803,780
1805,771
1807,758
1810,735
1812,708
1814,709
1816,743
1818,805
1820,890
1822,930
1824,931
1826,931
1828,931
1830,931
1832,931
1834,931
1836,931
1838,931
1840,931
1842,931
1844,931
1846,931
1848,931
1850,931
1853,931
1855,931
1857,931
1859,931
1861,931
1863,931
1865,931
1867,931
1869,931
1871,931
1873,931
1875,931
1877,931
1879,931
1881,931
1883,931
1885,931
1887,931
1889,931
1891,931
1893,929
1895,909
1897,878
1899,870
1901,914
1903,931
1905,931
1907,931
1909,931
1911,931
1913,931
1915,931
1917,931
1919,931
1921,931
1923,931
1925,931
1927,931
1929,931
1931,931
1933,931
1935,931
1938,931
1940,931
1942,931
1944,931
1946,931
1948,931
1950,931
1952,931
1954,931
1956,931
1958,931
1960,931
1962,931
1964,931
1966,931
1968,931
1970,931
1972,931
1974,931
1976,931
1978,931
1981,931
1983,931
1985,931
1987,931
1989,931
1991,931
1993,931
1995,931
1997,931
1999,931
2001,931
2003,931
2005,931
2007,931
2009,931
2011,931
2013,931
2015,931
2017,931
2019,931
2021,931
2023,931
2025,931
2027,931
2029,931
2031,931
2033,931
2035,931
2037,931
2039,931
2041,931
2043,931
2045,931
2047,931
2049,931
2051,931
2053,931
2055,931
2057,931
2059,932
2061,932
2063,931
2066,932
2068,931
2070,932
2072,931
2074,931
2076,932
2078,932
2080,932
2082,932
2084,932
2086,931
2088,931
2090,931
2092,932
2094,931
2096,931
2098,931
2100,931
2102,931
2104,931
2106,931
2109,931
2111,931
2113,932
2115,931
2117,932
2119,931
2121,931
2123,932
2125,932
2127,931
2129,931
2131,931
2133,932
2135,931
2137,931
2139,932
2141,931
2143,931
2145,932
2147,931
2149,932
2151,931
2153,931
2155,931
2157,932
2159,931
2161,932
2163,932
2165,932
2167,931
2169,931
2171,931
2173,931
2175,932
2177,931
2179,931
2181,932
2183,932
2185,931
2187,931
2189,932
2191,931
2194,931
2196,932
2198,931
2200,931
2202,932
2204,931
2206,931
2208,931
2210,932
2212,931
2214,932
2216,931
2218,932
2220,931
2222,931
2224,931
2226,931
2228,931
2230,932
2232,931
2234,932
2237,932
2239,931
2241,932
2243,931
2245,931
2247,931
2249,931
2251,931
2253,931
2255,931
2257,931
2259,932
2261,931
2263,931
2265,932
2267,931
2269,931
2271,932
2273,931
2275,931
2277,931
2279,931
2281,932
2283,931
2285,931
2287,931
2289,931
2291,931
2293,931
2295,931
2297,931
2299,931
2301,931
2303,931
2305,931
2307,931
2309,932
2311,931
2313,931
2315,931
2317,931
2319,931
2322,931
2324,931
2326,931
2328,931
2330,931
2332,931
2334,931
2336,931
2338,931
2340,931
2342,931
2344,931
2346,931
2348,931
2350,931
2352,931
2354,931
2356,931
2358,931
2360,931
2362,931
2365,931
2367,931
2369,931
2371,931
2373,931
2375,931
2377,931
2379,931
2381,931
2383,931
2385,931
2387,931
2389,931
2391,931
2393,931
2395,931
2397,931
2399,931
2401,931
2403,931
2405,931
2407,931
2409,931
2411,931
2413,916
2415,878
2417,843
2419,833
2421,820
2423,799
2425,800
2427,797
2429,804
2431,781
2433,778
2435,761
2437,739
2439,713
2441,695
2443,703
2445,692
2447,680
2450,674
2452,662
2454,638
2456,620
2458,599
2460,582
2462,586
2464,574
2466,576
2468,558
2470,546
2472,537
2474,515
2476,513
2478,522
2480,513
2482,534
2484,534
2486,518
2488,506
2490,499
2493,494
2495,506
2497,491
2499,470
2501,450
2503,433
2505,416
2507,404
2509,387
2511,370
2513,362
2515,371
2517,362
2519,360
2521,359
2523,353
2525,355
2527,374
2529,428
2531,442
2533,474
2535,473
2537,468
2539,499
2541,515
2543,499
2545,529
2547,578
2549,571
2551,586
2553,594
2555,595
2557,576
2559,550
2561,528
2563,507
2565,500
2567,499
2569,491
2571,508
2573,508
2575,497
2578,522
2580,530
2582,528
2584,516
2586,495
2588,478
2590,464
2592,453
2594,437
2596,418
2598,406
2600,425
2602,430
2604,419
2606,421
2608,441
2610,439
2612,436
2614,429
2616,437
2618,441
2621,473
2623,466
2625,474
2627,460
2629,453
2631,444
2633,483
2635,482
2637,490
2639,531
2641,541
2643,540
2645,527
2647,509
2649,491
2651,476
2653,468
2655,471
2657,533
2659,586
2661,584
2663,611
2665,660
2667,679
2669,668
2671,638
2673,612
2675,597
2677,591
2679,592
2681,597
2683,584
2685,607
2687,687
2689,689
2691,775
2693,822
2695,802
2697,785
2699,765
2701,739
2703,711
2706,689
2708,659
2710,650
2712,672
2714,662
2716,650
2718,630
2720,608
2722,600
2724,594
2726,578
2728,567
2730,552
2732,553
2734,537
2736,530
2738,521
2740,512
2742,508
2744,522
2746,572
2749,587
2751,570
2753,558
2755,603
2757,602
2759,608
2761,609
2763,655
2765,663
2767,709
2769,745
2771,739
2773,721
2775,698
2777,671
2779,651
2781,631
2783,612
2785,593
2787,577
2789,560
2791,553
2793,540
2795,525
2797,516
2799,514
2801,516
2803,547
2805,580
2807,594
2809,678
2811,721
2813,707
2815,685
2817,666
2819,649
2821,629
2823,604
2825,592
2827,587
2829,563
2831,541
2834,523
2836,500
2838,484
2840,467
2842,452
2844,435
2846,420
2848,404
2850,393
2852,386
2854,372
2856,362
2858,347
2860,355
2862,359
2864,355
2866,358
2868,349
2870,342
2872,352
2874,347
2877,355
2879,362
2881,371
2883,358
2885,348
2887,399
2889,408
2891,461
2893,559
2895,617
2897,601
2899,618
2901,640
2903,623
2905,632
2907,625
2909,601
2911,578
2913,557
2915,538
2917,521
2919,513
2921,498
2923,482
2925,465
2927,448
2929,431
2931,414
2933,397
2935,381
2937,368
2939,371
2941,397
2943,416
2945,410
2947,425
2949,438
2951,429
2953,464
2955,511
2957,513
2959,568
2962,656
2964,685
2966,674
2968,659
2970,635
2972,621
2974,597
2976,571
2978,560
2980,562
2982,550
2984,540
2986,532
2988,511
2990,491
2992,472
2994,455
2996,438
2998,421
3000,406
3002,391
3005,376
3007,362
3009,347
3011,332
3013,333
3015,375
3017,407
3019,405
3021,444
3023,471
3025,462
3027,470
3029,465
3031,459
3033,469
3035,456
3037,440
3039,435
3041,433
3043,422
3045,415
3047,415
3049,407
3051,395
3053,395
3055,392
3057,377
3059,361
3061,346
3063,335
3065,324
3067,314
3069,304
3071,293
3073,281
3075,270
3077,258
3079,253
3081,259
3083,261
3085,252
3087,247
3090,243
3092,236
3094,236
3096,236
3098,232
3100,248
3102,280
3104,293
3106,298
3108,324
3110,322
3112,338
3114,338
3116,346
3118,382
3120,416
3122,426
3124,416
3126,399
3128,387
3130,380
3133,373
3135,365
3137,354
3139,342
3141,329
3143,318
3145,306
3147,294
3149,281
3151,269
3153,260
3155,255
3157,254
3159,253
3161,245
3163,249
3165,254
3167,247
3169,237
3171,227
3173,222
3175,221
3177,219
3179,212
3181,208
3183,214
3185,215
3187,219
3189,241
3191,250
3193,245
3195,251
3197,265
3199,268
3201,264
3203,274
3205,282
3207,290
3209,289
3211,279
3213,267
3215,258
3218,255
3220,250
3222,243
3224,234
3226,225
3228,217
3230,208
3232,199
3234,192
3236,185
3238,178
3240,171
3242,164
3244,158
3246,152
3248,148
3250,142
3252,137
3254,132
3256,129
3258,125
3261,120
3263,116
3265,111
3267,108
3269,104
3271,101
3273,98
3275,95
3277,91
3279,88
3281,85
3283,83
3285,82
3287,79
3289,76
3291,77
3293,75
3295,72
3297,69
3299,67
3301,64
3303,63
3305,64
3307,63
3309,64
3311,63
3313,61
3315,63
3317,64
3319,63
3321,62
3323,60
3325,59
3327,59
3329,57
3331,55
3333,54
3335,53
3337,52
3339,50
3341,49
3343,47
3346,52
3348,55
3350,54
3352,56
3354,58
3356,60
3358,59
3360,61
3362,60
3364,60
3366,60
3368,62
3370,63
3372,69
3374,68
3376,72
3378,75
3380,74
3382,71
3384,71
3386,74
3389,79
3391,86
3393,89
3395,91
3397,90
3399,88
3401,88
3403,89
3405,93
3407,95
3409,98
3411,105
3413,114
3415,114
3417,111
3419,107
3421,109
3423,114
3425,117
3427,127
3429,126
3431,124
3433,130
3435,135
3437,137
3439,132
3441,128
3443,134
3445,136
3447,130
3449,127
3451,124
3453,132
3455,130
3457,129
3459,127
3461,124
3463,127
3465,133
3467,149
3469,153
3471,150
3474,147
3476,144
3478,145
3480,146
3482,144
3484,146
3486,145
3488,140
3490,148
3492,153
3494,161
3496,168
3498,176
3500,172
3502,167
3504,164
3506,159
3508,173
3510,190
3512,185
3514,180
3517,184
3519,186
3521,192
3523,201
3525,199
3527,197
3529,198
3531,198
3533,204
3535,199
3537,206
3539,213
3541,208
3543,212
3545,221
3547,227
3549,221
3551,227
3553,226
3555,221
3557,214
3559,213
3561,208
3563,203
3565,198
3567,192
3569,192
3571,185
3573,181
3575,176
3577,171
3579,165
3581,167
3583,190
3585,200
3587,200
3589,194
3591,188
3593,185
3595,183
3597,178
3599,176
3602,172
3604,172
3606,170
3608,169
3610,168
3612,165
3614,167
3616,161
3618,157
3620,153
3622,148
3624,143
3626,138
3628,132
3630,131
3632,134
3634,135
3636,132
3638,127
3640,127
3642,123
3645,119
3647,114
3649,114
3651,113
3653,109
3655,105
3657,101
3659,98
3661,100
3663,101
3665,106
3667,113
3669,111
3671,120
3673,126
3675,134
3677,137
3679,134
3681,133
3683,135
3685,131
3687,136
3689,139
3691,150
3693,179
3695,218
3697,234
3699,250
3701,309
3703,354
3705,353
3707,363
3709,516
3711,508
3713,526
3715,539
3717,524
3719,511
3721,493
3723,487
3725,481
3727,476
3730,467
3732,452
3734,433
3736,419
3738,407
3740,394
3742,386
3744,377
3746,409
3748,451
3750,450
3752,472
3754,507
3756,517
3758,515
3760,513
3762,494
3764,486
3766,497
3768,510
3770,510
3773,499
3775,496
3777,525
3779,550
3781,541
3783,535
3785,586
3787,666
3789,706
3791,691
3793,676
3795,673
3797,678
3799,674
3801,651
3803,657
3805,649
3807,692
3809,783
3811,841
3813,854
3815,901
3817,931
3819,931
3821,931
3823,931
3825,931
3827,931
3829,931
3831,931
3833,931
3835,931
3837,931
3839,931
3841,930
3843,895
3845,864
3847,839
3849,811
3851,798
3853,774
3855,763
3858,745
3860,721
3862,718
3864,727
3866,713
3868,736
3870,738
3872,707
3874,693
3876,695
3878,676
3880,670
3882,668
3884,666
3886,674
3888,673
3890,653
3892,624
3894,597
3896,578
3898,559
3901,540
3903,520
3905,513
3907,517
3909,504
3911,528
3913,551
3915,540
3917,553
3919,601
3921,596
3923,648
3925,698
3927,682
3929,664
3931,653
3933,644
3935,625
3937,608
3939,613
3941,609
3943,607
3945,589
3947,586
3949,587
3951,580
3953,583
3955,614
3957,653
3959,669
3961,655
3963,690
3965,734
3967,748
3969,735
3971,722
3973,767
3975,849
3977,872
3979,861
3981,902
3983,931
3986,931
3988,931
3990,931
3992,931
3994,931
3996,931
3998,931
4000,931
4002,931
4004,931
4006,931
4008,931
4010,931
4012,931
4014,931
4016,931
4018,931
4020,931
4022,931
4024,929
4026,897
4029,880
4031,861
4033,834
4035,837
4037,869
4039,872
4041,896
4043,931
4045,931
4047,930
4049,912
4051,889
4053,857
4055,845
4057,821
4059,818
4061,843
4063,824
4065,866
4067,928
4069,931
4071,931
4073,930
4075,931
4077,931
4079,931
4081,931
4083,931
4085,931
4087,931
4089,931
4091,931
4093,931
4095,931
4097,931
4099,931
4101,931
4103,931
4105,931
4107,931
4109,931
4111,931
4114,931
4116,931
4118,931
4120,931
4122,931
4124,931
4126,931
4128,931
4130,931
4132,931
4134,931
4136,931
4138,931
4140,931
4142,931
4144,931
4146,931
4148,931
4150,931
4152,931
4154,931
4157,931
4159,931
4161,931
4163,931
4165,931
4167,931
4169,931
4171,931
4173,931
4175,931
4177,931
4179,931
4181,931
4183,931
4185,931
4187,931
4189,932
4191,931
4193,931
4195,932
4197,931
4199,931
4201,932
4203,931
4205,931
4207,931
4209,931
4211,932
4213,931
4215,932
4217,931
4219,932
4221,931
4223,931
4225,931
4227,932
4229,932
4231,932
4233,931
4235,932
4237,931
4239,931
4242,931
4244,931
4246,931
4248,931
4250,932
4252,931
4254,932
4256,931
4258,931
4260,932
4262,931
4264,931
4266,931
4268,932
4270,931
4272,931
4274,931
4276,931
4278,931
4280,931
4282,931
4285,931
4287,931
4289,931
4291,931
4293,931
4295,931
4297,931
4299,931
4301,932
4303,931
4305,931
4307,931
4309,932
4311,931
4313,931
4315,932
4317,931
4319,931
4321,932
4323,931
4325,931
4327,931
4329,931
4331,931
4333,931
4335,931
4337,932
4339,931
4341,932
4343,931
4345,931
4347,931
4349,932
4351,931
4353,932
4355,931
4357,931
4359,932
4361,932
4363,931
4365,931
4367,931
4370,932
4372,931
4374,931
4376,931
4378,931
4380,931
4382,931
4384,931
4386,931
4388,931
4390,931
4392,931
4394,931
4396,931
4398,931
4400,931
4402,931
4404,931
4406,931
4408,931
4410,931
4413,931
4415,932
4417,931
4419,932
4421,932
4423,931
4425,931
4427,931
4429,932
4431,932
4433,931
4435,931
4437,931
4439,931
4441,931
4443,931
4445,931
4447,931
4449,932
4451,931
4453,931
4455,931
4457,931
4459,931
4461,931
4463,931
4465,931
4467,931
4469,931
4471,931
4473,932
4475,931
4477,931
4479,931
4481,931
4483,931
4485,931
4487,931
4489,931
4491,931
4493,931
4495,931
4498,931
4500,931
4502,931
4504,931
4506,931
4508,931
4510,931
4512,931
4514,931
4516,931
4518,931
4520,931
4522,931
4524,931
4526,931
4528,931
4530,931
4532,931
4534,931
4536,931
4538,931
4541,931
4543,931
4545,931
4547,931
4549,931
4551,931
4553,931
4555,931
4557,931
4559,931
4561,931
4563,931
4565,931
4567,931
4569,931
4571,931
4573,931
4575,931
4577,931
4579,931
4581,931
4583,930
4585,892
4587,862
4589,832
4591,806
4593,779
4595,745
4597,736
4599,721
4601,701
4603,694
4605,668
4607,646
4609,631
4611,633
4613,635
4615,671
4617,675
4619,646
4621,633
4623,615
4626,589
4628,570
4630,555
4632,534
4634,510
4636,489
4638,467
4640,447
4642,429
4644,416
4646,407
4648,392
4650,392
4652,390
4654,414
4656,402
4658,398
4660,403
4662,400
4664,397
4666,389
4669,373
4671,364
4673,362
4675,355
4677,340
4679,338
4681,331
4683,322
4685,328
4687,353
4689,353
4691,359
4693,350
4695,349
4697,346
4699,368
4701,377
4703,388
4705,407
4707,431
4709,429
4711,425
4713,413
4715,396
4717,394
4719,392
4721,376
4723,366
4725,357
4727,353
4729,368
4731,374
4733,368
4735,359
4737,368
4739,387
4741,384
4743,411
4745,513
4747,523
4749,606
4751,664
4754,653
4756,681
4758,683
4760,712
4762,727
4764,718
4766,689
4768,691
4770,751
4772,758
4774,817
4776,834
4778,815
4780,787
4782,756
4784,725
4786,694
4788,675
4790,665
4792,663
4794,669
4797,656
4799,664
4801,681
4803,674
4805,652
4807,624
4809,616
4811,689
4813,706
4815,743
4817,763
4819,750
4821,728
4823,701
4825,815
4827,841
4829,931
4831,931
4833,931
4835,931
4837,931
4839,931
4841,931
4843,931
4845,931
4847,931
4849,931
4851,931
4853,931
4855,931
4857,931
4859,930
4861,925
4863,892
4865,883
4867,859
4869,824
4871,803
4873,796
4875,768
4877,784
4879,805
4882,800
4884,818
4886,836
4888,817
4890,796
4892,913
4894,931
4896,931
4898,931
4900,931
4902,931
4904,931
4906,931
4908,931
4910,931
4912,931
4914,931
4916,931
4918,931
4920,931
4922,931
4925,931
4927,931
4929,931
4931,931
4933,931
4935,929
4937,912
4939,885
4941,846
4943,817
4945,853
4947,905
4949,896
4951,931
4953,931
4955,931
4957,927
4959,902
4961,929
4963,930
4965,917
4967,914
4969,879
4971,854
4973,844
4975,848
4977,821
4979,786
4981,773
4983,862
4985,871
4987,893
4989,931
4991,931
4993,930
4995,892
4997,859
4999,829
5001,802
5003,776
5005,753
5007,727
5010,702
5012,675
5014,646
5016,618
5018,594
5020,646
5022,762
5024,832
5026,859
5028,931
5030,931
5032,931
5034,931
5036,931
5038,931
5040,931
5042,931
5044,931
5046,929
5048,918
5050,931
5053,931
5055,931
5057,931
5059,931
5061,931
5063,931
5065,931
5067,931
5069,931
5071,931
5073,931
5075,931
5077,931
5079,931
5081,930
5083,904
5085,885
5087,866
5089,838
5091,810
5093,813
5095,825
5097,876
5099,888
5101,895
5103,930
5105,931
5107,903
5109,906
5111,918
5113,902
5115,912
5117,885
5119,886
5121,882
5123,846
5125,811
5127,779
5129,753
5131,770
5133,779
5135,762
5138,780
5140,780
5142,746
5144,712
5146,685
5148,662
5150,640
5152,623
5154,618
5156,619
5158,608
5160,591
5162,589
5164,587
5166,580
5168,614
5170,611
5172,592
5174,607
5176,595
5178,596
5181,620
5183,618
5185,605
5187,585
5189,571
5191,589
5193,611
5195,609
5197,669
5199,707
5201,690
5203,677
5205,651
5207,634
5209,609
5211,588
5213,570
5215,553
5217,544
5219,534
5221,517
5223,506
5225,483
5227,462
5229,444
5231,429
5233,424
5235,449
5237,498
5239,528
5241,518
5243,550
5245,603
5247,633
5249,634
5251,618
5253,601
5255,612
5257,612
5259,591
5261,581
5263,561
5266,545
5268,525
5270,515
5272,502
5274,490
5276,493
5278,489
5280,471
5282,460
5284,448
5286,441
5288,437
5290,425
5292,407
5294,392
5296,377
5298,364
5300,371
5302,405
5304,424
5306,422
5309,460
5311,484
5313,482
5315,463
5317,443
5319,429
5321,418
5323,435
5325,467
5327,471
5329,479
5331,515
5333,523
5335,503
5337,482
5339,461
5341,442
5343,427
5345,414
5347,398
5349,389
5351,386
5353,377
5355,362
5357,349
5359,340
5361,329
5363,315
5365,302
5367,289
5369,277
5371,266
5373,255
5375,244
5377,234
5379,224
5381,214
5383,205
5385,197
5387,189
5389,181
5391,173
5394,166
5396,159
5398,153
5400,147
5402,141
5404,136
5406,130
5408,127
5410,124
5412,119
5414,115
5416,112
5418,109
5420,106
5422,104
5424,100
5426,96
5428,93
5430,92
5432,89
5434,87
5437,85
5439,82
5441,79
5443,76
5445,75
5447,75
5449,73
5451,70
5453,68
5455,66
5457,69
5459,68
5461,66
5463,64
5465,62
5467,62
5469,60
5471,61
5473,63
5475,62
5477,61
5479,61
5481,59
5483,58
5485,59
5487,58
5489,57
5491,57
5493,57
5495,60
5497,59
5499,62
5501,61
5503,63
5505,64
5507,63
5509,67
5511,66
5513,64
5515,62
5517,61
5519,60
5522,59
5524,57
5526,60
5528,63
5530,67
5532,68
5534,68
5536,66
5538,65
5540,68
5542,68
5544,66
5546,64
5548,66
5550,78
5552,80
5554,87
5556,86
5558,87
5560,90
5562,90
5565,92
5567,92
5569,94
5571,96
5573,100
5575,98
5577,95
5579,92
5581,384
5583,451
5585,499
5587,532
5589,540
5591,541
5593,540
5595,529
5597,521
5599,517
5601,508
5603,489
5605,476
5607,485
5609,477
5611,468
5613,462
5615,450
5617,440
5619,434
5621,433
5623,416
5625,404
5627,397
5629,382
5631,368
5633,361
5635,349
5637,335
5639,323
5641,311
5643,299
5645,290
5647,279
5650,268
5652,269
5654,265
5656,260
5658,256
5660,254
5662,248
5664,245
5666,257
5668,252
5670,248
5672,242
5674,234
5676,252
5678,259
5680,267
5682,293
5684,293
5686,297
5688,289
5690,283
5693,278
5695,289
5697,291
5699,293
5701,307
5703,309
5705,305
5707,306
5709,303
5711,293
5713,284
5715,275
5717,266
5719,258
5721,249
5723,240
5725,232
5727,231
5729,232
5731,233
5733,235
5735,231
5737,232
5739,229
5741,225
5743,216
5745,207
5747,213
5749,207
5751,211
5753,207
5755,205
5757,196
5759,191
5761,189
5763,185
5765,193
5767,195
5769,208
5771,208
5773,200
5775,531
5778,578
5780,614
5782,626
5784,641
5786,649
5788,642
5790,624
5792,603
5794,580
5796,562
5798,549
5800,532
5802,511
5804,852
5806,931
5808,931
5810,931
5812,931
5814,931
5816,931
5818,931
5821,931
5823,931
5825,931
5827,931
5829,931
5831,931
5833,931
5835,931
5837,931
5839,931
5841,931
5843,931
5845,931
5847,931
5849,932
5851,931
5853,931
5855,931
5857,931
5859,931
5861,931
5863,931
5865,931
5867,931
5869,932
5871,931
5873,932
5875,932
5877,931
5879,931
5881,932
5883,932
5885,931
5887,932
5889,931
5891,931
5893,931
5895,931
5897,931
5899,931
5901,931
5903,931
5906,931
5908,931
5910,931
5912,931
5914,931
5916,931
5918,931
5920,931
5922,931
5924,931
5926,931
5928,931
5930,931
5932,931
5934,931
5936,931
5938,931
5940,931
5942,931
5944,930
5946,899
5949,886
5951,870
5953,839
5955,821
5957,818
5959,805
5961,774
5963,768
5965,783
5967,791
5969,768
5971,778
5973,780
5975,768
5977,763
5979,737
5981,740
5983,748
5985,728
5987,749
5989,787
5991,784
5993,782
5995,818
5997,833
5999,816
6001,794
6003,773
6005,744
6007,743
6009,763
6011,775
6013,749
6015,730
6017,707
6019,705
6021,693
6023,666
6025,644
6027,618
6029,596
6031,599
6034,618
6036,616
6038,610
6040,656
6042,715
6044,745
6046,724
6048,717
6050,730
6052,763
6054,820
6056,855
6058,832
6060,811
6062,785
6064,753
6066,731
6068,707
6070,675
6072,668
6074,704
6077,725
6079,732
6081,710
6083,693
6085,674
6087,702
6089,752
6091,786
6093,771
6095,757
6097,776
6099,798
6101,780
6103,782
6105,819
6107,830
6109,839
6111,922
6113,931
6115,931
6117,931
6119,931
6121,931
6123,931
6125,931
6127,931
6129,931
6131,931
6133,931
6135,931
6137,931
6139,930
6141,931
6143,930
6145,931
6147,931
6149,910
6151,897
6153,898
6155,879
6157,890
6159,918
6162,904
6164,927
6166,931
6168,931
6170,931
6172,931
6174,931
6176,931
6178,931
6180,931
6182,931
6184,931
6186,931
6188,931
6190,931
6192,931
6194,931
6196,931
6198,931
6200,931
6202,931
6205,931
6207,931
6209,931
6211,931
6213,931
6215,931
6217,931
6219,931
6221,931
6223,931
6225,931
6227,931
6229,931
6231,931
6233,931
6235,931
6237,931
6239,931
6241,931
6243,931
6245,931
6247,931
6249,931
6251,931
6253,931
6255,931
6257,931
6259,931
6261,931
6263,931
6265,931
6267,931
6269,931
6271,931
6273,931
6275,931
6277,931
6279,931
6281,931
6283,931
6285,931
6287,931
6290,931
6292,931
6294,931
6296,931
6298,931
6300,931
6302,931
6304,931
6306,931
6308,931
6310,931
6312,931
6314,931
6316,931
6318,931
6320,931
6322,931
6324,931
6326,931
6328,931
6330,931
6333,931
6335,931
6337,931
6339,931
6341,931
6343,931
6345,931
6347,931
6349,931
6351,931
6353,931
6355,931
6357,931
6359,931
6361,931
6363,931
6365,931
6367,931
6369,931
6371,931
6373,931
6375,931
6377,931
6379,931
6381,931
6383,931
6385,931
6387,931
6389,931
6391,931
6393,931
6395,931
6397,931
6399,931
6401,931
6403,931
6405,931
6407,931
6409,931
6411,931
6413,931
6415,931
6418,931
6420,931
6422,931
6424,931
6426,931
6428,931
6430,931
6432,931
6434,931
6436,931
6438,931
6440,931
6442,931
6444,931
6446,931
6448,931
6450,931
6452,931
6454,931
6456,931
6458,931
6461,931
6463,932
6465,931
6467,931
6469,931
6471,931
6473,931
6475,931
6477,931
6479,931
6481,931
6483,931
6485,931
6487,931
6489,931
6491,931
6493,932
6495,932
6497,931
6499,932
6501,931
6503,931
6505,931
6507,932
6509,932
6511,932
6513,931
6515,931
6517,931
6519,931
6521,931
6523,931
6525,931
6527,931
6529,932
6531,931
6533,931
6535,931
6537,931
6539,932
6541,931
6543,931
6546,931
6548,931
6550,932
6552,932
6554,931
6556,932
6558,931
6560,932
6562,931
6564,932
6566,931
6568,932
6570,931
6572,931
6574,932
6576,931
6578,931
6580,932
6582,931
6584,931
6586,931
6589,931
6591,932
6593,931
6595,931
6597,931
6599,931
6601,931
6603,932
6605,931
6607,932
6609,931
6611,932
6613,931
6615,931
6617,931
6619,931
6621,932
6623,931
6625,931
6627,931
6629,931
6631,931
6633,931
6635,931
6637,931
6639,931
6641,931
6643,931
6645,932
6647,931
6649,931
6651,932
6653,931
6655,931
6657,931
6659,931
6661,932
6663,931
6665,931
6667,931
6669,931
6671,931
6674,931
6676,931
6678,931
6680,931
6682,931
6684,931
6686,931
6688,931
6690,931
6692,931
6694,931
6696,931
6698,931
6700,931
6702,931
6704,931
6706,931
6708,931
6710,931
6712,931
6714,931
6717,931
6719,931
6721,931
6723,931
6725,931
6727,931
6729,931
6731,931
6733,931
6735,931
6737,931
6739,931
6741,931
6743,931
6745,931
6747,931
6749,931
6751,931
6753,929
6755,887
6757,864
6759,853
6761,830
6763,826
6765,803
6767,774
6769,749
6771,723
6773,695
6775,668
6777,654
6779,655
6781,635
6783,611
6785,593
6787,609
6789,606
6791,603
6793,587
6795,592
6797,571
6799,545
6802,523
6804,507
6806,493
6808,479
6810,463
6812,448
6814,435
6816,439
6818,452
6820,447
6822,465
6824,469
6826,449
6828,433
6830,416
6832,401
6834,389
6836,388
6838,376
6840,372
6842,365
6845,365
6847,377
6849,378
6851,384
6853,403
6855,400
6857,417
6859,424
6861,409
6863,407
6865,422
6867,444
6869,431
6871,437
6873,517
6875,538
6877,587
6879,625
6881,610
6883,595
6885,585
6887,574
6889,574
6891,563
6893,549
6895,529
6897,521
6899,504
6901,500
6903,483
6905,470
6907,452
6909,433
6911,422
6913,460
6915,483
6917,500
6919,540
6921,531
6923,529
6925,553
6927,547
6930,584
6932,625
6934,604
6936,610
6938,595
6940,590
6942,586
6944,686
6946,757
6948,804
6950,904
6952,889
6954,883
6956,871
6958,866
6960,841
6962,830
6964,798
6966,763
6968,731
6970,707
6973,692
6975,683
6977,659
6979,639
6981,615
6983,602
6985,585
6987,571
6989,570
6991,552
6993,571
6995,611
6997,602
6999,637
7001,684
7003,679
7005,770
7007,825
7009,836
7011,882
7013,864
7015,865
7017,859
7019,931
7021,931
7023,931
7025,931
7027,931
7029,931
7031,931
7033,931
7035,931
7037,931
7039,931
7041,931
7043,930
7045,898
7047,866
7049,832
7051,796
7053,767
7055,760
7058,739
7060,712
7062,717
7064,718
7066,718
7068,753
7070,766
7072,758
7074,872
7076,894
7078,931
7080,931
7082,931
7084,931
7086,931
7088,931
7090,923
7092,907
7094,899
7096,898
7098,931
7101,928
7103,894
7105,864
7107,847
7109,864
7111,869
7113,850
7115,870
7117,860
7119,838
7121,820
7123,791
7125,780
7127,762
7129,731
7131,713
7133,706
7135,722
7137,703
7139,683
7141,682
7143,675
7145,645
7147,619
7149,602
7151,595
7153,617
7155,652
7157,642
7159,643
7161,700
7163,701
7165,795
7167,888
7169,870
7171,839
7173,816
7175,788
7177,762
7179,745
7181,747
7183,757
7186,743
7188,727
7190,716
7192,704
7194,701
7196,718
7198,730
7200,715
7202,693
7204,670
7206,655
7208,663
7210,643
7212,618
7214,594
7216,578
7218,579
7220,566
7222,546
7224,538
7226,549
7229,540
7231,530
7233,534
7235,518
7237,568
7239,605
7241,594
7243,593
7245,615
7247,619
7249,675
7251,744
7253,761
7255,745
7257,727
7259,703
7261,703
7263,718
7265,715
7267,696
7269,673
7271,660
7273,639
7275,634
7277,618
7279,628
7281,612
7283,617
7285,638
7287,627
7289,601
7291,576
7293,557
7295,576
7297,591
7299,575
7301,591
7303,609
7305,598
7307,574
7309,551
7311,542
7314,544
7316,538
7318,522
7320,512
7322,494
7324,491
7326,496
7328,482
7330,489
7332,502
7334,497
7336,536
7338,578
7340,568
7342,588
7344,623
7346,638
7348,634
7350,611
7352,594
7354,578
7357,561
7359,538
7361,522
7363,508
7365,499
7367,537
7369,564
7371,552
7373,567
7375,565
7377,551
7379,550
7381,548
7383,535
7385,536
7387,573
7389,618
7391,634
7393,626
7395,665
7397,718
7399,736
7401,735
7403,706
7405,675
7407,650
7409,630
7411,616
7413,611
7415,608
7417,595
7419,571
7421,556
7423,535
7425,512
7427,490
7429,470
7431,451
7433,431
7435,417
7437,424
7439,457
7442,464
7444,454
7446,469
7448,467
7450,452
7452,437
7454,434
7456,450
7458,459
7460,452
7462,435
7464,417
7466,398
7468,383
7470,370
7472,360
7474,355
7476,356
7478,352
7480,341
7482,338
7485,328
7487,314
7489,301
7491,290
7493,293
7495,311
7497,319
7499,321
7501,348
7503,352
7505,340
7507,327
7509,314
7511,306
7513,293
7515,283
7517,286
7519,305
7521,314
7523,313
7525,340
7527,350
7529,348
7531,334
7533,321
7535,309
7537,301
7539,292
7541,282
7543,271
7545,260
7547,250
7549,242
7551,232
7553,222
7555,212
7557,203
7559,195
7561,190
7563,184
7565,180
7567,181
7570,180
7572,178
7574,174
7576,176
7578,180
7580,181
7582,182
7584,177
7586,170
7588,167
7590,162
7592,156
7594,149
7596,146
7598,145
7600,140
7602,141
7604,139
7606,134
7608,131
7610,127
7613,126
7615,126
7617,122
7619,118
7621,113
7623,111
7625,107
7627,103
7629,101
7631,101
7633,97
7635,94
7637,91
7639,89
7641,86
7643,86
7645,83
7647,83
7649,86
7651,85
7653,86
7655,88
7657,91
7659,93
7661,91
7663,91
7665,92
7667,89
7669,91
7671,99
7673,99
7675,105
7677,104
7679,104
7681,101
7683,103
7685,104
7687,105
7689,111
7691,111
7693,115
7695,119
7698,122
7700,123
7702,128
7704,131
7706,127
7708,124
7710,127
7712,124
7714,122
7716,123
7718,119
7720,117
7722,121
7724,119
7726,115
7728,119
7730,119
7732,118
7734,119
7736,115
7738,112
7741,116
7743,127
7745,130
7747,139
7749,157
7751,174
7753,174
7755,168
7757,168
7759,170
7761,171
7763,174
7765,171
7767,177
7769,180
7771,189
7773,183
7775,185
7777,186
7779,195
7781,201
7783,201
7785,200
7787,193
7789,191
7791,198
7793,191
7795,186
7797,188
7799,194
7801,194
7803,204
7805,204
7807,204
7809,202
7811,203
7813,201
7815,209
7817,202
7819,205
7821,202
7823,196
7826,196
7828,189
7830,189
7832,188
7834,191
7836,185
7838,180
7840,173
7842,186
7844,189
7846,206
7848,206
7850,207
7852,200
7854,207
7856,207
7858,199
7860,193
7862,189
7864,195
7866,197
7869,209
7871,207
7873,209
7875,216
7877,212
7879,211
7881,206
7883,208
7885,210
7887,203
7889,199
7891,197
7893,206
7895,199
7897,201
7899,200
7901,198
7903,193
7905,192
7907,189
7909,182
7911,179
7913,176
7915,172
7917,169
7919,165
7921,160
7923,155
7925,151
7927,146
7929,144
7931,403
7933,433
7935,459
7937,478
7939,489
7941,486
7943,487
7945,484
7947,473
7949,461
7951,454
7954,445
7956,427
7958,413
7960,408
7962,403
7964,604
7966,631
7968,652
7970,669
7972,677
7974,668
7976,652
7978,632
7980,606
7982,585
7984,574
7986,557
7988,541
7990,533
7992,520
7994,538
7997,556
7999,550
8001,695
8003,783
8005,802
8007,778
8009,751
8011,729
8013,707
8015,682
8017,652
8019,623
8021,599
8023,592
8025,590
8027,572
8029,550
8031,540
8033,559
8035,555
8037,567
8039,586
8041,620
8043,613
8045,596
8047,600
8049,601
8051,584
8053,584
8055,570
8057,568
8059,581
8061,583
8063,562
8065,548
8067,544
8069,532
8071,521
8073,535
8075,541
8077,560
8079,640
8082,685
8084,667
8086,656
8088,676
8090,695
8092,682
8094,667
8096,649
8098,627
8100,607
8102,611
8104,599
8106,607
8108,639
8110,643
8112,619
8114,614
8116,639
8118,675
8120,692
8122,672
8125,665
8127,657
8129,633
8131,615
8133,612
8135,611
8137,597
8139,599
8141,593
8143,573
8145,566
8147,552
8149,527
8151,507
8153,491
8155,480
8157,465
8159,502
8161,594
8163,668
8165,702
8167,777
8169,920
8171,930
8173,930
8175,918
8177,923
8179,929
8181,900
8183,900
8185,930
8187,931
8189,931
8191,931
8193,931
8195,931
8197,931
8199,931
8201,931
8203,931
8205,931
8207,930
8210,931
8212,931
8214,931
8216,931
8218,931
8220,931
8222,931
8224,931
8226,931
8228,931
8230,931
8232,931
8234,931
8236,931
8238,931
8240,931
8242,931
8244,931
8246,931
8248,931
8250,931
8253,931
8255,931
8257,931
8259,931
8261,931
8263,931
8265,931
8267,931
8269,931
8271,931
8273,931
8275,931
8277,931
8279,931
8281,931
8283,931
8285,931
8287,931
8289,931
8291,931
8293,931
8295,931
8297,931
8299,931
8301,931
8303,931
8305,931
8307,931
8309,931
8311,931
8313,931
8315,931
8317,931
8319,931
8321,931
8323,931
8325,931
8327,931
8329,931
8331,931
8333,931
8335,931
8338,931
8340,931
8342,931
8344,931
8346,931
8348,931
8350,931
8352,931
8354,931
8356,931
8358,931
8360,931
8362,931
8364,931
8366,931
8368,931
8370,931
8372,931
8374,931
8376,931
8378,931
8381,931
8383,931
8385,931
8387,931
8389,931
8391,931
8393,931
8395,931
8397,931
8399,931
8401,931
8403,931
8405,931
8407,931
8409,931
8411,931
8413,931
8415,931
8417,931
8419,931
8421,931
8423,931
8425,931
8427,931
8429,931
8431,931
8433,931
8435,931
8437,931
8439,931
8441,931
8443,931
8445,931
8447,931
8449,931
8451,931
8453,931
8455,931
8457,931
8459,931
8461,931
8463,931
8466,931
8468,931
8470,931
8472,931
8474,931
8476,931
8478,931
8480,931
8482,931
8484,931
8486,931
8488,931
8490,931
8492,931
8494,931
8496,931
8498,931
8500,931
8502,931
8504,931
8506,931
8509,931
8511,932
8513,931
8515,931
8517,931
8519,931
8521,931
8523,931
8525,931
8527,931
8529,931
8531,931
8533,932
8535,931
8537,931
8539,931
8541,931
8543,931
8545,931
8547,931
8549,931
8551,931
8553,931
8555,931
8557,931
8559,931
8561,931
8563,931
8565,931
8567,931
8569,931
8571,931
8573,931
8575,931
8577,931
8579,931
8581,931
8583,931
8585,931
8587,931
8589,931
8591,931
8594,931
8596,931
8598,931
8600,931
8602,931
8604,931
8606,931
8608,931
8610,931
8612,931
8614,931
8616,931
8618,931
8620,931
8622,931
8624,931
8626,931
8628,931
8630,931
8632,932
8634,931
8637,931
8639,932
8641,931
8643,931
8645,931
8647,931
8649,931
8651,931
8653,931
8655,931
8657,931
8659,931
8661,931
8663,931
8665,931
8667,931
8669,931
8671,931
8673,931
8675,931
8677,931
8679,931
8681,931
8683,931
8685,931
8687,931
8689,931
8691,931
8693,931
8695,931
8697,931
8699,931
8701,931
8703,931
8705,931
8707,931
8709,931
8711,931
8713,931
8715,931
8717,931
8719,931
8722,931
8724,931
8726,931
8728,931
8730,931
8732,931
8734,931
8736,931
8738,931
8740,931
8742,931
8744,931
8746,931
8748,931
8750,931
8752,931
8754,931
8756,931
8758,931
8760,931
8762,931
8765,931
8767,931
8769,931
8771,931
8773,931
8775,931
8777,931
8779,931
8781,931
8783,931
8785,931
8787,931
8789,931
8791,931
8793,931
8795,931
8797,931
8799,931
8801,931
8803,931
8805,931
8807,931
8809,931
8811,931
8813,931
8815,931
8817,931
8819,931
8821,931
8823,931
8825,931
8827,931
8829,931
8831,931
8833,931
8835,931
8837,931
8839,931
8841,931
8843,931
8845,931
8847,931
8850,931
8852,931
8854,931
8856,931
8858,931
8860,931
8862,911
8864,871
8866,838
8868,806
8870,790
8872,764
8874,749
8876,719
8878,706
8880,696
8882,677
8884,679
8886,676
8888,655
8890,640
8893,642
8895,630
8897,607
8899,589
8901,597
8903,586
8905,572
8907,551
8909,526
8911,504
8913,482
8915,462
8917,465
8919,475
8921,459
8923,460
8925,461
8927,449
8929,441
8931,449
8933,437
8935,427
8937,412
8939,419
8941,429
8943,421
8945,432
8947,445
8949,429
8951,410
8953,401
8955,441
8957,448
8959,465
8961,473
8963,463
8965,452
8967,463
8969,480
8971,474
8973,461
8975,446
8978,469
8980,481
8982,465
8984,540
8986,563
8988,589
8990,631
8992,615
8994,591
8996,568
8998,551
9000,538
9002,518
9004,513
9006,499
9008,489
9010,497
9012,498
9014,530
9016,519
9018,500
9021,488
9023,494
9025,493
9027,517
9029,573
9031,604
9033,702
9035,714
9037,726
9039,745
9041,748
9043,755
9045,806
9047,821
9049,833
9051,892
9053,891
9055,858
9057,825
9059,788
9061,758
9063,750
9065,750
9067,744
9069,717
9071,707
9073,710
9075,710
9077,742
9079,730
9081,709
9083,679
9085,653
9087,646
9089,691
9091,699
9093,683
9095,672
9097,649
9099,691
9101,727
9103,722
9106,777
9108,862
9110,863
9112,930
9114,931
9116,931
9118,930
9120,906
9122,890
9124,854
9126,825
9128,806
9130,799
9132,769
9134,740
9136,720
9138,694
9140,675
9142,718
9144,740
9146,718
9149,704
9151,691
9153,706
9155,695
9157,711
9159,704
9161,686
9163,701
9165,718
9167,731
9169,715
9171,690
9173,694
9175,726
9177,735
9179,743
9181,750
9183,760
9185,774
9187,764
9189,791
9191,803
9193,827
9195,808
9197,781
9199,753
9201,729
9203,706
9205,688
9207,732
9209,777
9211,764
9213,756
9215,753
9217,749
9219,768
9221,771
9223,756
9225,757
9227,768
9229,749
9231,738
9234,714
9236,686
9238,657
9240,631
9242,620
9244,613
9246,603
9248,601
9250,582
9252,586
9254,579
9256,590
9258,597
9260,681
9262,783
9264,787
9266,891
9268,931
9270,931
9272,931
9274,931
9277,929
9279,901
9281,868
9283,829
9285,797
9287,775
9289,751
9291,724
9293,697
9295,672
9297,651
9299,633
9301,633
9303,653
9305,639
9307,647
9309,645
9311,641
9313,644
9315,639
9317,624
9319,626
9321,656
9323,648
9325,722
9327,843
9329,892
9331,862
9333,853
9335,903
9337,931
9339,931
9341,931
9343,931
9345,931
9347,931
9349,923
9351,881
9353,846
9355,814
9357,785
9359,758
9362,733
9364,711
9366,687
9368,663
9370,636
9372,609
9374,582
9376,566
9378,590
9380,657
9382,700
9384,689
9386,737
9388,780
9390,790
9392,786
9394,758
9396,724
9398,692
9400,668
9402,655
9405,633
9407,619
9409,661
9411,716
9413,776
9415,771
9417,818
9419,912
9421,931
9423,931
9425,924
9427,880
9429,851
9431,831
9433,812
9435,793
9437,776
9439,757
9441,734
9443,707
9445,677
9447,662
9449,635
9451,609
9453,585
9455,561
9457,538
9459,529
9461,528
9463,525
9465,583
9467,642
9469,649
9471,663
9473,731
9475,799
9477,845
9479,856
9481,834
9483,798
9485,771
9487,755
9490,751
9492,753
9494,747
9496,741
9498,735
9500,710
9502,700
9504,708
9506,706
9508,688
9510,663
9512,634
9514,606
9516,583
9518,561
9520,545
9522,532
9524,517
9526,495
9528,476
9530,457
9533,437
9535,421
9537,403
9539,385
9541,369
9543,355
9545,367
9547,415
9549,447
9551,454
9553,511
9555,535
9557,521
9559,506
9561,487
9563,465
9565,446
9567,432
9569,414
9571,406
9573,396
9575,391
9577,377
9579,367
9581,357
9583,342
9585,331
9587,323
9589,311
9591,297
9593,284
9595,272
9597,261
9599,253
9601,249
9603,249
9605,244
9607,236
9609,238
9611,249
9613,247
9615,266
9618,306
9620,323
9622,313
9624,301
9626,291
9628,279
9630,268
9632,260
9634,257
9636,253
9638,244
9640,234
9642,224
9644,217
9646,211
9648,203
9650,196
9652,189
9654,181
9656,174
9658,166
9661,160
9663,154
9665,148
9667,143
9669,137
9671,134
9673,130
9675,130
9677,126
9679,124
9681,121
9683,116
9685,112
9687,108
9689,106
9691,108
9693,112
9695,109
9697,109
9699,106
9701,104
9703,103
9705,102
9707,100
9709,97
9711,97
9713,97
9715,94
9717,92
9719,88
9721,85
9723,84
9725,82
9727,83
9729,85
9731,83
9733,84
9735,82
9737,82
9739,83
9741,83
9743,82
9746,81
9748,81
9750,82
9752,85
9754,83
9756,81
9758,88
9760,93
9762,92
9764,101
9766,103
9768,105
9770,104
9772,106
9774,106
9776,105
9778,103
9780,107
9782,115
9784,111
9786,107
9789,114
9791,127
9793,126
9795,128
9797,128
9799,127
9801,126
9803,127
9805,127
9807,132
9809,132
9811,128
9813,123
9815,124
9817,137
9819,142
9821,156
9823,153
9825,159
9827,163
9829,162
9831,159
9833,158
9835,161
9837,160
9839,162
9841,163
9843,162
9845,162
9847,164
9849,169
9851,164
9853,161
9855,163
9857,161
9859,160
9861,173
9863,173
9865,170
9867,182
9869,179
9871,172
9874,172
9876,170
9878,164
9880,165
9882,174
9884,179
9886,192
9888,189
9890,183
9892,181
9894,188
9896,187
9898,181
9900,177
9902,174
9904,173
9906,172
9908,175
9910,184
9912,188
9914,190
9917,187
9919,180
9921,176
9923,176
9925,175
9927,173
9929,167
9931,164
9933,158
9935,151
9937,154
9939,152
9941,152
9943,153
9945,148
9947,144
9949,139
9951,134
9953,131
9955,126
9957,122
9959,119
9961,114
9963,110
9965,106
9967,103
9969,108
9971,117
9973,119
9975,122
9977,137
9979,145
9981,142
9983,138
9985,133
9987,128
9989,127
9991,134
9993,146
9995,157
9997,187
9999,214
10002,224
10004,226
10006,251
10008,265
10010,267
10012,290
10014,295
10016,307
10018,351
10020,382
10022,386
10024,381
10026,456
10028,748
10030,756
10032,741
10034,712
10036,683
10038,681
10040,724
10042,762
10045,749
10047,719
10049,723
10051,757
10053,759
10055,731
10057,704
10059,931
10061,931
10063,931
10065,931
10067,931
10069,931
10071,930
10073,931
10075,931
10077,931
10079,931
10081,931
10083,931
10085,931
10087,931
10089,931
10091,931
10093,931
10095,931
10097,931
10099,931
10101,931
10103,931
10105,931
10107,931
10109,931
10111,931
10113,931
10115,931
10117,931
10119,931
10121,931
10123,931
10125,931
10127,931
10130,931
10132,931
10134,931
10136,931
10138,931
10140,931
10142,931
10144,931
10146,931
10148,931
10150,931
10152,931
10154,931
10156,931
10158,931
10160,931
10162,931
10164,931
10166,931
10168,931
10170,931
10173,931
10175,931
10177,931
10179,931
10181,931
10183,931
10185,931
10187,931
10189,931
10191,931
10193,931
10195,931
10197,931
10199,931
10201,931
10203,931
10205,931
10207,931
10209,931
10211,931
10213,931
10215,931
10217,931
10219,931
10221,931
10223,931
10225,931
10227,931
10229,931
10231,931
10233,931
10235,931
10237,931
10239,931
10241,931
10243,931
10245,931
10247,931
10249,931
10251,931
10253,931
10255,931
10258,931
10260,931
10262,931
10264,931
10266,931
10268,931
10270,931
10272,931
10274,931
10276,931
10278,931
10280,931
10282,931
10284,931
10286,932
10288,931
10290,932
10292,931
10294,931
10296,931
10298,931
10301,931
10303,931
10305,931
10307,931
10309,931
10311,931
10313,931
10315,931
10317,931
10319,931
10321,931
10323,931
10325,931
10327,931
10329,931
10331,931
10333,931
10335,931
10337,931
10339,931
10341,931
10343,931
10345,931
10347,931
10349,931
10351,931
10353,931
10355,931
10357,931
10359,931
10361,931
10363,931
10365,931
10367,931
10369,931
10371,931
10373,931
10375,931
10377,931
10379,931
10381,931
10383,931
10386,931
10388,931
10390,931
10392,931
10394,931
10396,931
10398,931
10400,931
10402,931
10404,931
10406,931
10408,931
10410,931
10412,931
10414,931
10416,931
10418,931
10420,931
10422,931
10424,931
10426,931
10429,931
10431,931
10433,931
10435,931
10437,931
10439,931
10441,931
10443,931
10445,931
10447,931
10449,931
10451,931
10453,931
10455,931
10457,931
10459,931
10461,931
10463,931
10465,931
10467,932
10469,931
10471,931
10473,931
10475,931
10477,931
10479,931
10481,931
10483,931
10485,931
10487,931
10489,931
10491,931
10493,931
10495,931
10497,931
10499,931
10501,931
10503,931
10505,931
10507,931
10509,931
10511,931
10514,931
10516,931
10518,931
10520,932
10522,931
10524,931
10526,932
10528,931
10530,931
10532,931
10534,931
10536,931
10538,931
10540,931
10542,931
10544,931
10546,931
10548,931
10550,931
10552,931
10554,931
10557,931
10559,931
10561,931
10563,931
10565,931
10567,931
10569,932
10571,931
10573,932
10575,931
10577,931
10579,931
10581,931
10583,931
10585,932
10587,931
10589,931
10591,931
10593,931
10595,931
10597,931
10599,931
10601,931
10603,931
10605,931
10607,931
10609,931
10611,931
10613,932
10615,931
10617,932
10619,931
10621,931
10623,931
10625,931
10627,931
10629,931
10631,931
10633,931
10635,931
10637,932
10639,931
10642,931
10644,931
10646,932
10648,931
10650,931
10652,931
10654,931
10656,931
10658,931
10660,931
10662,931
10664,932
10666,932
10668,931
10670,931
10672,931
10674,931
10676,931
10678,932
10680,931
10682,931
10685,932
10687,931
10689,931
10691,931
10693,931
10695,932
10697,932
10699,932
10701,931
10703,931
10705,931
10707,931
10709,931
10711,932
10713,931
10715,931
10717,931
10719,931
10721,931
10723,931
10725,932
10727,932
10729,932
10731,931
10733,931
10735,931
10737,931
10739,931
10741,931
10743,931
10745,932
10747,931
10749,931
10751,931
10753,931
10755,931
10757,932
10759,931
10761,931
10763,931
10765,931
10767,931
10770,931
10772,931
10774,932
10776,931
10778,931
10780,931
10782,931
10784,931
10786,931
10788,931
10790,931
10792,931
10794,931
10796,931
10798,931
10800,931
10802,931
10804,931
10806,931
10808,931
10810,931
10813,931
10815,931
10817,931
10819,931
10821,931
10823,931
10825,929
10827,886
10829,868
10831,843
10833,869
10835,862
10837,920
10839,930
10841,901
10843,866
10845,880
10847,873
10849,858
10851,849
10853,815
10855,798
10857,764
10859,733
10861,701
10863,671
10865,646
10867,620
10869,596
10871,572
10873,565
10875,589
10877,579
10879,594
10881,590
10883,586
10885,571
10887,571
10889,597
10891,701
10893,778
10895,898
10898,931
10900,931
10902,931
10904,931
10906,931
10908,930
10910,912
10912,887
10914,850
10916,817
10918,787
10920,754
10922,732
10924,703
10926,673
10928,675
10930,686
10932,670
10934,689
10936,685
10938,663
10941,662
10943,666
10945,713
10947,733
10949,733
10951,726
10953,740
10955,731
10957,758
10959,779
10961,750
10963,716
10965,689
10967,664
10969,635
10971,608
10973,585
10975,580
10977,656
10979,671
10981,729
10983,766
10985,771
10987,739
10989,707
10991,725
10993,918
10995,931
10997,931
10999,931
11001,931
11003,931
11005,931
11007,931
11009,927
11011,889
11013,856
11015,846
11017,832
11019,842
11021,832
11023,862
11026,918
11028,895
11030,864
11032,853
11034,832
11036,818
11038,801
11040,776
11042,743
11044,711
11046,681
11048,657
11050,656
11052,635
11054,609
11056,585
11058,584
11060,585
11062,669
11064,687
11066,755
11069,803
11071,772
11073,748
11075,828
11077,847
11079,886
11081,925
11083,916
11085,899
11087,869
11089,857
11091,837
11093,812
11095,793
11097,761
11099,767
11101,830
11103,846
11105,862
11107,899
11109,896
11111,882
11113,928
11115,927
11117,930
11119,931
11121,931
11123,917
11125,878
11127,841
11129,816
11131,787
11133,780
11135,766
11137,745
11139,714
11141,693
11143,670
11145,642
11147,616
11149,589
11151,563
11154,543
11156,521
11158,534
11160,754
11162,807
11164,827
11166,931
11168,931
11170,931
11172,931
11174,931
11176,931
11178,931
11180,931
11182,931
11184,931
11186,931
11188,912
11190,880
11192,854
11194,855
11197,876
11199,858
11201,835
11203,817
11205,832
11207,876
11209,862
11211,868
11213,884
11215,857
11217,828
11219,794
11221,770
11223,747
11225,723
11227,724
11229,743
11231,774
11233,771
11235,803
11237,880
11239,903
11241,911
11243,885
11245,884
11247,872
11249,839
11251,809
11253,819
11255,882
11257,870
11259,917
11261,931
11263,931
11265,930
11267,920
11269,889
11271,858
11273,866
11275,890
11277,862
11279,838
11282,808
11284,776
11286,746
11288,724
11290,708
11292,690
11294,676
11296,662
11298,640
11300,621
11302,638
11304,626
11306,635
11308,664
11310,653
11312,691
11314,702
11316,700
11318,717
11320,734
11322,742
11325,748
11327,724
11329,710
11331,699
11333,681
11335,656
11337,632
11339,641
11341,663
11343,700
11345,696
11347,689
11349,681
11351,746
11353,832
11355,855
11357,826
11359,791
11361,763
11363,740
11365,718
11367,707
11369,686
11371,666
11373,648
11375,632
11377,621
11379,607
11381,590
11383,577
11385,570
11387,620
11389,697
11391,698
11393,733
11395,818
11397,864
11399,883
11401,867
11403,873
11405,877
11407,863
11410,831
11412,823
11414,791
11416,762
11418,735
11420,725
11422,739
11424,725
11426,701
11428,676
11430,677
11432,694
11434,701
11436,679
11438,674
11440,665
11442,648
11444,634
11446,623
11448,600
11450,591
11453,601
11455,649
11457,691
11459,679
11461,707
11463,761
11465,770
11467,739
11469,708
11471,693
11473,683
11475,675
11477,694
11479,702
11481,685
11483,660
11485,651
11487,651
11489,647
11491,626
11493,599
11495,587
11497,565
11499,552
11501,532
11503,513
11505,499
11507,515
11509,554
11511,565
11513,558
11515,589
11517,612
11519,603
11521,585
11523,565
11525,541
11527,519
11529,500
11531,483
11533,485
11535,526
11538,579
11540,591
11542,609
11544,677
11546,707
11548,691
11550,670
11552,643
11554,616
11556,594
11558,581
11560,582
11562,615
11564,650
11566,644
11568,652
11570,694
11572,715
11574,705
11576,683
11578,654
11581,629
11583,607
11585,587
11587,568
11589,553
11591,543
11593,527
11595,505
11597,488
11599,474
11601,457
11603,437
11605,418
11607,400
11609,389
11611,380
11613,366
11615,350
11617,341
11619,352
11621,361
11623,356
11625,376
11627,403
11629,404
11631,388
11633,372
11635,358
11637,353
11639,347
11641,338
11643,328
11645,315
11647,309
11649,303
11651,298
11653,288
11655,276
11657,267
11659,258
11661,251
11663,240
11666,230
11668,222
11670,213
11672,205
11674,197
11676,191
11678,189
11680,187
11682,185
11684,178
11686,171
11688,164
11690,158
11692,151
11694,147
11696,142
11698,138
11700,135
11702,130
11704,126
11706,121
11709,118
11711,121
11713,120
11715,127
11717,125
11719,125
11721,123
11723,124
11725,129
11727,134
11729,129
11731,124
11733,121
11735,124
11737,127
11739,136
11741,136
11743,143
11745,158
11747,155
11749,154
11751,152
11753,149
11755,150
11757,149
11759,145
11761,142
11763,143
11765,146
11767,142
11769,136
11771,134
11773,134
11775,136
11777,138
11779,133
11781,131
11783,135
11785,134
11787,138
11789,133
11791,129
11794,126
11796,133
11798,132
11800,133
11802,132
11804,128
11806,129
11808,140
11810,145
11812,153
11814,150
11816,146
11818,143
11820,158
11822,155
11824,161
11826,163
11828,185
11830,200
11832,195
11834,193
11837,190
11839,191
11841,185
11843,184
11845,182
11847,182
11849,190
11851,187
11853,204
11855,213
11857,219
11859,224
11861,218
11863,216
11865,211
11867,212
11869,207
11871,201
11873,196
11875,193
11877,191
11879,188
11881,184
11883,180
11885,183
11887,178
11889,175
11891,170
11893,164
11895,160
11897,154
11899,148
11901,145
11903,145
11905,139
11907,147
11909,148
11911,150
11913,151
11915,146
11917,150
11919,148
11922,146
11924,141
11926,138
11928,133
11930,129
11932,124
11934,119
11936,115
11938,112
11940,112
11942,121
11944,137
11946,151
11948,151
11950,170
11952,195
11954,209
11956,206
11958,197
11960,571
11962,629
11965,662
11967,648
11969,626
11971,608
11973,641
11975,708
11977,744
11979,724
11981,702
11983,681
11985,656
11987,633
11989,607
11991,599
11993,596
11995,583
11997,826
11999,820
12001,797
12003,762
12005,741
12007,740
12009,753
12011,758
12013,746
12015,726
12017,708
12019,679
12021,649
12023,630
12025,754
12027,737
12029,909
12031,904
12033,877
12035,842
12037,828
12039,858
12041,909
12043,928
12045,900
12047,863
12050,827
12052,796
12054,790
12056,800
12058,931
12060,931
12062,931
12064,931
12066,931
12068,931
12070,931
12072,931
12074,931
12076,931
12078,931
12080,931
12082,931
12084,931
12086,931
12088,931
12090,931
12093,931
12095,931
12097,931
12099,931
12101,931
12103,931
12105,931
12107,931
12109,931
12111,931
12113,931
12115,931
12117,931
12119,931
12121,931
12123,931
12125,931
12127,931
12129,931
12131,931
12133,931
12135,931
12137,931
12139,931
12141,931
12143,931
12145,931
12147,931
12149,931
12151,931
12153,931
12155,931
12157,931
12159,931
12161,931
12163,931
12165,931
12167,931
12169,931
12171,931
12173,931
12175,931
12178,931
12180,931
12182,931
12184,931
12186,931
12188,931
12190,931
12192,931
12194,931
12196,931
12198,931
12200,931
12202,931
12204,931
12206,931
12208,931
12210,931
12212,931
12214,931
12216,931
12218,931
12221,931
12223,931
12225,931
12227,931
12229,931
12231,931
12233,931
12235,931
12237,931
12239,931
12241,931
12243,931
12245,931
12247,931
12249,931
12251,931
12253,931
12255,931
12257,931
12259,931
12261,931
12263,931
12265,931
12267,931
12269,931
12271,931
12273,931
12275,931
12277,931
12279,931
12281,931
12283,931
12285,931
12287,931
12289,931
12291,931
12293,931
12295,931
12297,931
12299,931
12301,931
12303,931
12306,931
12308,931
12310,931
12312,931
12314,931
12316,931
12318,931
12320,931
12322,931
12324,931
12326,931
12328,931
12330,931
12332,931
12334,931
12336,931
12338,932
12340,931
12342,931
12344,931
12346,931
12349,931
12351,931
12353,931
12355,932
12357,931
12359,931
12361,931
12363,931
12365,931
12367,931
12369,931
12371,931
12373,931
12375,931
12377,931
12379,931
12381,931
12383,931
12385,931
12387,931
12389,931
12391,932
12393,931
12395,931
12397,931
12399,931
12401,931
12403,931
12405,931
12407,931
12409,931
12411,931
12413,931
12415,931
12417,931
12419,932
12421,931
12423,931
12425,931
12427,931
12429,931
12431,931
12434,931
12436,931
12438,932
12440,931
12442,931
12444,931
12446,931
12448,931
12450,932
12452,931
12454,931
12456,931
12458,931
12460,932
12462,931
12464,932
12466,932
12468,931
12470,931
12472,931
12474,931
12477,931
12479,931
12481,931
12483,931
12485,931
12487,931
12489,931
12491,932
12493,931
12495,932
12497,931
12499,931
12501,932
12503,932
12505,931
12507,931
12509,931
12511,931
12513,932
12515,931
12517,932
12519,932
12521,931
12523,931
12525,931
12527,931
12529,931
12531,931
12533,932
12535,931
12537,931
12539,931
12541,931
12543,931
12545,931
12547,931
12549,931
12551,931
12553,931
12555,931
12557,932
12559,931
12562,931
12564,931
12566,931
12568,931
12570,931
12572,931
12574,932
12576,931
12578,931
12580,931
12582,932
12584,932
12586,931
12588,931
12590,931
12592,931
12594,931
12596,931
12598,931
12600,931
12602,931
12605,931
12607,931
12609,932
12611,932
12613,931
12615,931
12617,931
12619,931
12621,931
12623,931
12625,932
12627,931
12629,931
12631,931
12633,932
12635,931
12637,932
12639,932
12641,931
12643,931
12645,931
12647,931
12649,931
12651,931
12653,931
12655,931
12657,931
12659,931
12661,931
12663,931
12665,931
12667,932
12669,931
12671,931
12673,931
12675,931
12677,931
12679,931
12681,931
12683,931
12685,932
12687,931
12690,931
12692,932
12694,931
12696,931
12698,931
12700,932
12702,931
12704,931
12706,931
12708,931
12710,931
12712,931
12714,931
12716,931
12718,932
12720,932
12722,932
12724,931
12726,931
12728,931
12730,931
12733,931
12735,931
12737,931
12739,932
12741,931
12743,931
12745,931
12747,931
12749,931
12751,931
12753,931
12755,931
12757,931
12759,931
12761,931
12763,931
12765,931
12767,931
12769,931
12771,931
12773,931
12775,931
12777,931
12779,931
12781,931
12783,931
12785,931
12787,931
12789,931
12791,931
12793,931
12795,931
12797,931
12799,931
12801,931
12803,931
12805,931
12807,931
12809,931
12811,931
12813,931
12815,931
12818,931
12820,931
12822,931
12824,931
12826,931
12828,931
12830,931
12832,931
12834,931
12836,931
12838,931
12840,931
12842,931
12844,931
12846,931
12848,931
12850,931
12852,931
12854,931
12856,931
12858,931
12861,931
12863,931
12865,931
12867,931
12869,931
12871,931
12873,931
12875,931
12877,931
12879,931
12881,930
12883,909
12885,890
12887,930
12889,930
12891,931
12893,931
12895,930
12897,901
12899,862
12901,839
12903,839
12905,820
12907,803
12909,788
12911,754
12913,733
12915,715
12917,698
12919,670
12921,642
12923,622
12925,616
12927,604
12929,579
12931,557
12933,567
12935,614
12937,639
12939,649
12941,659
12943,660
12946,707
12948,706
12950,698
12952,716
12954,709
12956,681
12958,659
12960,647
12962,630
12964,612
12966,596
12968,603
12970,617
12972,602
12974,608
12976,590
12978,574
12980,570
12982,576
12984,558
12986,535
12989,535
12991,539
12993,525
12995,530
12997,542
12999,636
13001,666
13003,647
13005,691
13007,756
13009,788
13011,779
13013,757
13015,726
13017,769
13019,903
13021,920
13023,931
13025,931
13027,931
13029,931
13031,931
13033,931
13035,931
13037,931
13039,931
13041,931
13043,931
13045,931
13047,931
13049,931
13051,931
13053,931
13055,931
13057,931
13059,931
13061,931
13063,931
13065,931
13067,928
13069,890
13071,857
13074,869
13076,872
13078,849
13080,832
13082,924
13084,931
13086,931
13088,931
13090,931
13092,931
13094,931
13096,931
13098,931
13100,930
13102,907
13104,888
13106,858
13108,835
13110,888
13112,891
13114,873
13117,862
13119,882
13121,893
13123,931
13125,931
13127,931
13129,931
13131,931
13133,931
13135,931
13137,931
13139,931
13141,931
13143,931
13145,931
13147,931
13149,931
13151,931
13153,931
13155,931
13157,931
13159,931
13161,931
13163,931
13165,931
13167,931
13169,931
13171,931
13173,931
13175,931
13177,930
13179,930
13181,931
13183,931
13185,931
13187,931
13189,931
13191,931
13193,931
13195,931
13197,931
13199,931
13202,931
13204,931
13206,931
13208,931
13210,931
13212,931
13214,931
13216,931
13218,931
13220,931
13222,931
13224,931
13226,931
13228,931
13230,931
13232,931
13234,931
13236,928
13238,931
13240,931
13242,931
13245,930
13247,895
13249,897
13251,931
13253,931
13255,931
13257,931
13259,931
13261,931
13263,931
13265,931
13267,931
13269,931
13271,930
13273,927
13275,903
13277,876
13279,849
13281,822
13283,795
13285,761
13287,745
13289,719
13291,692
13293,671
13295,724
13297,758
13299,759
13301,748
13303,755
13305,758
13307,842
13309,929
13311,931
13313,931
13315,930
13317,917
13319,909
13321,902
13323,924
13325,931
13327,931
13330,931
13332,931
13334,931
13336,931
13338,931
13340,931
13342,931
13344,930
13346,924
13348,887
13350,852
13352,814
13354,777
13356,742
13358,714
13360,699
13362,687
13364,672
13366,693
13368,718
13370,703
13373,730
13375,761
13377,757
13379,736
13381,722
13383,710
13385,694
13387,767
13389,841
13391,833
13393,835
13395,815
13397,792
13399,829
13401,888
13403,905
13405,889
13407,879
13409,845
13411,833
13413,819
13415,803
13417,792
13419,805
13421,810
13423,789
13425,761
13427,738
13429,715
13431,703
13433,676
13435,663
13437,662
13439,654
13441,639
13443,693
13445,758
13447,816
13449,805
13451,836
13453,917
13455,931
13458,931
13460,930
13462,899
13464,876
13466,931
13468,931
13470,931
13472,931
13474,931
13476,931
13478,931
13480,931
13482,931
13484,931
13486,931
13488,930
13490,910
13492,883
13494,853
13496,822
13498,792
13501,763
13503,735
13505,709
13507,682
13509,656
13511,639
13513,623
13515,613
13517,628
13519,656
13521,654
13523,670
13525,715
13527,710
13529,732
13531,748
13533,747
13535,790
13537,792
13539,776
13541,750
13543,743
13545,753
13547,772
13549,765
13551,736
13553,722
13555,711
13557,692
13559,670
13561,643
13563,620
13565,608
13567,586
13569,566
13571,546
13573,526
13575,508
13577,489
13579,477
13581,483
13583,493
13586,483
13588,484
13590,494
13592,490
13594,475
13596,483
13598,540
13600,586
13602,581
13604,603
13606,640
13608,664
13610,673
13612,657
13614,630
13616,605
13618,581
13620,563
13622,574
13624,589
13626,577
13629,578
13631,573
13633,596
13635,626
13637,614
13639,626
13641,667
13643,694
13645,705
13647,683
13649,656
13651,637
13653,618
13655,601
13657,584
13659,568
13661,551
13663,536
13665,523
13667,507
13669,486
13671,477
13673,458
13675,438
13677,419
13679,403
13681,397
13683,448
13685,556
13687,619
13689,633
13691,743
13693,852
13695,889
13697,875
13699,841
13701,810
13703,788
13705,769
13707,749
13709,728
13711,709
13714,688
13716,662
13718,634
13720,605
13722,578
13724,553
13726,529
13728,507
13730,489
13732,469
13734,449
13736,430
13738,413
13740,396
13742,382
13744,366
13746,359
13748,379
13750,405
13752,405
13754,432
13757,488
13759,509
13761,491
13763,471
13765,457
13767,440
13769,422
13771,408
13773,393
13775,379
13777,364
13779,348
13781,334
13783,320
13785,306
13787,296
13789,288
13791,278
13793,271
13795,267
13797,257
13799,254
13801,244
13803,235
13805,228
13807,221
13809,213
13811,205
13813,198
13815,191
13817,183
13819,175
13821,168
13823,162
13825,157
13827,153
13829,147
13831,142
13833,139
13835,134
13837,128
13839,124
13842,119
13844,116
13846,115
13848,112
13850,114
13852,113
13854,114
13856,115
13858,112
13860,108
13862,104
13864,101
13866,99
13868,100
13870,98
13872,95
13874,94
13876,92
13878,91
13880,90
13882,91
13885,91
13887,92
13889,93
13891,90
13893,87
13895,86
13897,85
13899,89
13901,94
13903,93
13905,90
13907,89
13909,87
13911,87
13913,92
13915,91
13917,88
13919,86
13921,85
13923,88
13925,86
13927,84
13929,87
13931,97
13933,106
13935,105
13937,111
13939,122
13941,124
13943,139
13945,135
13947,131
13949,126
13951,125
13953,130
13955,137
13957,132
13959,131
13961,129
13963,125
13965,129
13967,135
13970,145
13972,155
13974,162
13976,172
13978,177
13980,185
13982,196
13984,201
13986,197
13988,192
13990,195
13992,198
13994,195
13996,193
13998,190
14000,190
14002,191
14004,195
14006,193
14008,203
14010,198
14013,190
14015,194
14017,190
14019,192
14021,201
14023,193
14025,191
14027,323
14029,342
14031,331
14033,327
14035,338
14037,344
14039,342
14041,332
14043,324
14045,331
14047,325
14049,321
14051,311
14053,313
14055,312
14057,311
14059,561
14061,602
14063,642
14065,643
14067,622
14069,617
14071,612
14073,594
14075,583
14077,573
14079,552
14081,528
14083,504
14085,483
14087,465
14089,451
14091,701
14093,736
14095,745
14098,734
14100,728
14102,719
14104,701
14106,679
14108,655
14110,627
14112,601
14114,579
14116,561
14118,559
14120,859
14122,887
14124,914
14126,923
14128,913
14130,897
14132,883
14134,851
14136,815
14138,790
14141,774
14143,758
14145,728
14147,700
14149,670
14151,642
14153,752
14155,725
14157,931
14159,931
14161,931
14163,931
14165,931
14167,931
14169,931
14171,931
14173,931
14175,931
14177,931
14179,931
14181,931
14183,931
14185,931
14187,931
14189,930
14191,909
14193,875
14195,850
14197,821
14199,788
14201,754
14203,725
14205,723
14207,727
14209,727
14211,714
14213,694
14215,672
14217,931
14219,931
14221,931
14223,931
14226,931
14228,931
14230,931
14232,931
14234,931
14236,931
14238,931
14240,931
14242,931
14244,930
14246,920
14248,930
14250,931
14252,930
14254,931
14256,931
14258,931
14260,931
14262,931
14264,931
14266,931
14269,931
14271,931
14273,931
14275,931
14277,931
14279,931
14281,931
14283,931
14285,931
14287,931
14289,931
14291,931
14293,931
14295,931
14297,931
14299,931
14301,931
14303,931
14305,931
14307,931
14309,931
14311,931
14313,931
14315,931
14317,931
14319,931
14321,931
14323,931
14325,931
14327,931
14329,931
14331,931
14333,931
14335,931
14337,931
14339,931
14341,931
14343,931
14345,931
14347,931
14349,931
14351,931
14354,931
14356,931
14358,931
14360,931
14362,931
14364,931
14366,931
14368,931
14370,931
14372,931
14374,931
14376,931
14378,931
14380,931
14382,931
14384,931
14386,931
14388,931
14390,931
14392,931
14394,931
14397,931
14399,931
14401,931
14403,931
14405,931
14407,931
14409,931
14411,931
14413,931
14415,931
14417,931
14419,931
14421,931
14423,931
14425,931
14427,931
14429,931
14431,931
14433,931
14435,931
14437,931
14439,931
14441,931
14443,931
14445,931
14447,931
14449,931
14451,931
14453,931
14455,931
14457,931
14459,931
14461,931
14463,931
14465,931
14467,931
14469,931
14471,931
14473,931
14475,931
14477,931
14479,931
14482,931
14484,931
14486,931
14488,931
14490,931
14492,931
14494,931
14496,931
14498,931
14500,931
14502,931
14504,931
14506,931
14508,931
14510,931
14512,931
14514,932
14516,931
14518,931
14520,931
14522,931
14525,931
14527,931
14529,931
14531,931
14533,931
14535,931
14537,931
14539,931
14541,931
14543,931
14545,931
14547,931
14549,931
14551,932
14553,931
14555,932
14557,931
14559,931
14561,931
14563,932
14565,931
14567,931
14569,931
14571,931
14573,932
14575,931
14577,931
14579,931
14581,931
14583,932
14585,931
14587,931
14589,931
14591,932
14593,931
14595,932
14597,931
14599,931
14601,931
14603,931
14605,931
14607,931
14610,932
14612,931
14614,931
14616,931
14618,931
14620,931
14622,931
14624,931
14626,931
14628,931
14630,931
14632,931
14634,931
14636,932
14638,931
14640,931
14642,931
14644,931
14646,932
14648,931
14650,932
14653,932
14655,931
14657,931
14659,931
14661,931
14663,931
14665,931
14667,931
14669,931
14671,932
14673,932
14675,931
14677,931
14679,931
14681,931
14683,931
14685,932
14687,931
14689,931
14691,931
14693,931
14695,931
14697,932
14699,932
14701,931
14703,931
14705,931
14707,931
14709,931
14711,932
14713,931
14715,931
14717,931
14719,932
14721,931
14723,931
14725,931
14727,931
14729,931
14731,932
14733,931
14735,932
14738,931
14740,931
14742,931
14744,931
14746,931
14748,931
14750,932
14752,932
14754,931
14756,932
14758,931
14760,931
14762,931
14764,931
14766,932
14768,931
14770,931
14772,931
14774,931
14776,931
14778,931
14781,931
14783,931
14785,931
14787,931
14789,931
14791,931
14793,931
14795,931
14797,931
14799,931
14801,931
14803,931
14805,931
14807,931
14809,931
14811,931
14813,931
14815,931
14817,931
14819,931
14821,931
14823,931
14825,931
14827,931
14829,932
14831,931
14833,931
14835,931
14837,931
14839,931
14841,931
14843,931
14845,931
14847,931
14849,931
14851,931
14853,931
14855,931
14857,931
14859,931
14861,931
14863,931
14866,931
14868,931
14870,931
14872,931
14874,931
14876,931
14878,931
14880,931
14882,931
14884,931
14886,931
14888,931
14890,931
14892,931
14894,931
14896,931
14898,931
14900,931
14902,931
14904,931
14906,931
14909,931
14911,931
14913,931
14915,931
14917,931
14919,931
14921,931
14923,931
14925,931
14927,931
14929,931
14931,931
14933,931
14935,931
14937,931
14939,931
14941,931
14943,919
14945,891
14947,859
14949,821
14951,802
14953,767
14955,735
14957,710
14959,687
14961,671
14963,643
14965,615
14967,592
14969,582
14971,634
14973,649
14975,729
14977,727
14979,719
14981,704
14983,712
14985,689
14987,672
14989,662
14991,683
14994,705
14996,714
14998,720
15000,695
15002,677
15004,664
15006,655
15008,633
15010,615
15012,596
15014,571
15016,548
15018,526
15020,510
15022,490
15024,475
15026,479
15028,462
15030,445
15032,442
15034,438
15037,427
15039,431
15041,437
15043,466
15045,464
15047,458
15049,455
15051,463
15053,461
15055,554
15057,566
15059,587
15061,599
15063,604
15065,630
15067,624
15069,636
15071,673
15073,709
15075,703
15077,679
15079,669
15081,669
15083,647
15085,629
15087,648
15089,931
15091,932
15093,931
15095,931
15097,931
15099,931
15101,931
15103,931
15105,931
15107,931
15109,932
15111,931
15113,931
15115,931
15117,931
15119,931
15122,931
15124,931
15126,931
15128,931
15130,931
15132,931
15134,931
15136,931
15138,931
15140,931
15142,931
15144,931
15146,931
15148,931
15150,931
15152,931
15154,931
15156,931
15158,932
15160,931
15162,931
15165,931
15167,931
15169,931
15171,931
15173,931
15175,931
15177,931
15179,931
15181,931
15183,931
15185,931
15187,931
15189,931
15191,931
15193,931
15195,931
15197,931
15199,931
15201,931
15203,931
15205,931
15207,931
15209,931
15211,931
15213,931
15215,931
15217,931
15219,931
15221,931
15223,931
15225,931
15227,931
15229,931
15231,931
15233,928
15235,913
15237,931
15239,931
15241,931
15243,931
15245,931
15247,931
15250,931
15252,930
15254,913
15256,883
15258,877
15260,863
15262,842
15264,813
15266,793
15268,787
15270,836
15272,838
15274,895
15276,931
15278,930
15280,909
15282,931
15284,931
15286,931
15288,931
15290,931
15293,931
15295,931
15297,931
15299,931
15301,931
15303,931
15305,931
15307,931
15309,931
15311,931
15313,930
15315,926
15317,894
15319,856
15321,843
15323,820
15325,827
15327,802
15329,818
15331,835
15333,813
15335,814
15337,807
15339,779
15341,768
15343,746
15345,756
15347,783
15349,760
15351,745
15353,727
15355,717
15357,694
15359,669
15361,694
15363,682
15365,698
15367,740
15369,739
15371,711
15373,746
15375,793
15378,776
15380,805
15382,830
15384,804
15386,784
15388,754
15390,729
15392,750
15394,881
15396,930
15398,931
15400,931
15402,931
15404,931
15406,931
15408,931
15410,931
15412,931
15414,931
15416,931
15418,931
15421,930
15423,896
15425,864
15427,853
15429,840
15431,810
15433,801
15435,790
15437,761
15439,735
15441,712
15443,705
15445,682
15447,674
15449,676
15451,675
15453,651
15455,742
15457,857
15459,867
15461,931
15463,931
15465,931
15467,931
15469,931
15471,931
15473,931
15475,931
15477,931
15479,931
15481,931
15483,931
15485,931
15487,931
15489,931
15491,930
15493,912
15495,877
15497,837
15499,820
15501,816
15503,801
15506,770
15508,741
15510,711
15512,691
15514,670
15516,643
15518,614
15520,590
15522,570
15524,573
15526,588
15528,592
15530,597
15532,606
15534,597
15536,629
15538,619
15540,598
15542,589
15544,631
15546,660
15549,658
15551,708
15553,789
15555,808
15557,835
15559,916
15561,931
15563,931
15565,908
15567,870
15569,834
15571,806
15573,779
15575,752
15577,728
15579,705
15581,691
15583,676
15585,656
15587,629
15589,601
15591,587
15593,561
15595,537
15597,516
15599,494
15601,497
15603,572
15605,680
15607,712
15609,750
15611,860
15613,929
15615,912
15617,930
15619,931
15621,931
15623,931
15625,931
15627,931
15629,931
15631,931
15634,931
15636,931
15638,931
15640,931
15642,931
15644,931
15646,931
15648,930
15650,897
15652,866
15654,837
15656,809
15658,783
15660,762
15662,747
15664,731
15666,707
15668,676
15670,649
15672,624
15674,599
15677,595
15679,620
15681,648
15683,641
15685,634
15687,629
15689,656
15691,649
15693,719
15695,833
15697,875
15699,842
15701,805
15703,775
15705,751
15707,733
15709,720
15711,704
15713,680
15715,651
15717,623
15719,609
15721,592
15723,588
15725,587
15727,567
15729,560
15731,552
15733,553
15735,571
15737,561
15739,592
15741,605
15743,593
15745,591
15747,572
15749,561
15751,560
15753,582
15755,580
15757,574
15759,593
15762,600
15764,598
15766,594
15768,582
15770,563
15772,540
15774,519
15776,506
15778,506
15780,503
15782,487
15784,474
15786,463
15788,444
15790,429
15792,413
15794,396
15796,380
15798,364
15800,352
15802,354
15805,356
15807,346
15809,349
15811,347
15813,334
15815,319
15817,306
15819,295
15821,294
15823,287
15825,288
15827,292
15829,282
15831,276
15833,264
15835,256
15837,245
15839,235
15841,225
15843,215
15845,210
15847,210
15849,211
15851,207
15853,200
15855,200
15857,199
15859,194
15861,187
15863,185
15865,181
15867,177
15869,177
15871,174
15873,167
15875,161
15877,155
15879,148
15881,142
15883,137
15885,132
15887,127
15890,122
15892,117
15894,113
15896,109
15898,108
15900,104
15902,100
15904,96
15906,93
15908,91
15910,87
15912,84
15914,81
15916,79
15918,78
15920,75
15922,73
15924,71
15926,69
15928,67
15930,68
15933,70
15935,68
15937,68
15939,70
15941,68
15943,65
15945,64
15947,64
15949,62
15951,60
15953,60
15955,59
15957,429
15959,668
15961,760
15963,825
15965,856
15967,867
15969,869
15971,861
15973,849
15975,842
15977,822
15979,798
15981,771
15983,744
15985,718
15987,693
15989,669
15991,646
15993,621
15995,595
15997,572
15999,550
16001,527
16003,507
16005,486
16007,468
16009,448
16011,433
16013,416
16015,404
16018,389
16020,374
16022,358
16024,347
16026,334
16028,324
16030,310
16032,297
16034,288
16036,276
16038,266
16040,257
16042,248
16044,240
16046,235
16048,229
16050,221
16052,215
16054,348
16056,354
16058,359
16061,370
16063,372
16065,369
16067,363
16069,348
16071,337
16073,327
16075,327
16077,316
16079,311
16081,303
16083,299
16085,295
16087,299
16089,293
16091,287
16093,284
16095,282
16097,271
16099,261
16101,255
16103,252
16105,248
16107,247
16109,246
16111,242
16113,234
16115,237
16117,240
16119,240
16121,241
16123,232
16125,234
16127,228
16129,224
16131,216
16133,212
16135,210
16137,213
16139,206
16141,200
16143,195
16146,188
16148,182
16150,182
16152,180
16154,186
16156,179
16158,172
16160,179
16162,181
16164,187
16166,195
16168,201
16170,203
16172,197
16174,195
16176,192
16178,187
16180,186
16182,185
16184,183
16186,183
16189,178
16191,172
16193,172
16195,174
16197,168
16199,164
16201,161
16203,156
16205,150
16207,147
16209,142
16211,141
16213,146
16215,275
16217,282
16219,403
16221,442
16223,449
16225,468
16227,476
16229,472
16231,467
16233,461
16235,451
16237,434
16239,422
16241,413
16243,411
16245,402
16247,755
16249,834
16251,886
16253,909
16255,914
16257,918
16259,911
16261,886
16263,866
16265,852
16267,832
16269,803
16271,773
16274,739
16276,713
16278,686
16280,923
16282,930
16284,931
16286,931
16288,930
16290,916
16292,891
16294,863
16296,834
16298,805
16300,774
16302,743
16304,711
16306,680
16308,650
16310,624
16312,920
16314,931
16317,931
16319,931
16321,931
16323,931
16325,931
16327,931
16329,931
16331,931
16333,931
16335,931
16337,931
16339,931
16341,931
16343,931
16345,931
16347,930
16349,891
16351,853
16353,820
16355,789
16357,769
16359,759
16361,737
16363,708
16365,678
16367,653
16369,641
16371,657
16373,683
16375,687
16377,786
16379,765
16381,734
16383,730
16385,751
16387,774
16389,759
16391,800
16393,863
16395,878
16397,851
16399,815
16402,792
16404,778
16406,754
16408,720
16410,825
16412,931
16414,931
16416,931
16418,930
16420,920
16422,910
16424,880
16426,871
16428,892
16430,906
16432,903
16434,889
16436,905
16438,931
16440,931
16442,931
16445,931
16447,929
16449,925
16451,931
16453,931
16455,931
16457,931
16459,931
16461,930
16463,905
16465,906
16467,920
16469,890
16471,887
16473,882
16475,847
16477,822
16479,811
16481,799
16483,838
16485,866
16487,857
16489,841
16491,865
16493,900
16495,898
16497,864
16499,862
16501,865
16503,842
16505,888
16507,931
16509,931
16511,931
16513,931
16515,908
16517,917
16519,931
16521,931
16523,931
16525,931
16527,931
16530,931
16532,931
16534,931
16536,931
16538,931
16540,931
16542,931
16544,931
16546,931
16548,931
16550,931
16552,931
16554,931
16556,931
16558,931
16560,931
16562,931
16564,931
16566,931
16568,931
16570,931
16573,931
16575,931
16577,931
16579,931
16581,931
16583,931
16585,931
16587,931
16589,931
16591,931
16593,931
16595,931
16597,931
16599,931
16601,931
16603,931
16605,931
16607,931
16609,931
16611,931
16613,931
16615,931
16617,931
16619,931
16621,931
16623,931
16625,931
16627,931
16629,931
16631,931
16633,931
16635,931
16637,931
16639,931
16641,931
16643,931
16645,931
16647,931
16649,932
16651,931
16653,931
16655,931
16658,931
16660,931
16662,931
16664,931
16666,931
16668,931
16670,931
16672,931
16674,931
16676,931
16678,931
16680,931
16682,931
16684,931
16686,931
16688,931
16690,931
16692,931
16694,931
16696,931
16698,931
16701,931
16703,931
16705,931
16707,931
16709,932
16711,932
16713,931
16715,932
16717,931
16719,932
16721,931
16723,931
16725,931
16727,931
16729,931
16731,931
16733,932
16735,931
16737,931
16739,931
16741,931
16743,931
16745,931
16747,931
16749,931
16751,931
16753,931
16755,931
16757,931
16759,931
16761,931
16763,931
16765,931
16767,932
16769,932
16771,931
16773,931
16775,931
16777,931
16779,931
16781,931
16783,931
16786,931
16788,931
16790,931
16792,931
16794,931
16796,931
16798,931
16800,932
16802,932
16804,931
16806,931
16808,931
16810,931
16812,931
16814,931
16816,932
16818,931
16820,931
16822,931
16824,931
16826,931
16829,932
16831,931
16833,931
16835,931
16837,931
16839,931
16841,932
16843,932
16845,931
16847,931
16849,931
16851,932
16853,931
16855,932
16857,931
16859,931
16861,932
16863,931
16865,931
16867,932
16869,931
16871,931
16873,931
16875,931
16877,931
16879,931
16881,931
16883,931
16885,931
16887,931
16889,932
16891,931
16893,931
16895,931
16897,931
16899,931
16901,931
16903,931
16905,931
16907,931
16909,931
16911,931
16914,931
16916,932
16918,931
16920,932
16922,931
16924,931
16926,932
16928,931
16930,931
16932,931
16934,931
16936,931
16938,931
16940,931
16942,931
16944,932
16946,931
16948,931
16950,931
16952,931
16954,931
16957,931
16959,931
16961,931
16963,931
16965,932
16967,931
16969,932
16971,932
16973,931
16975,931
16977,931
16979,931
16981,931
16983,932
16985,931
16987,931
16989,931
16991,931
16993,931
16995,931
16997,931
16999,931
17001,932
17003,931
17005,931
17007,932
17009,931
17011,931
17013,931
17015,932
17017,931
17019,931
17021,931
17023,932
17025,931
17027,931
17029,931
17031,931
17033,931
17035,932
17037,931
17039,931
17042,931
17044,931
17046,932
17048,931
17050,932
17052,931
17054,931
17056,931
17058,931
17060,931
17062,931
17064,931
17066,931
17068,931
17070,931
17072,932
17074,931
17076,931
17078,931
17080,931
17082,931
17085,931
17087,931
17089,931
17091,931
17093,931
17095,931
17097,931
17099,931
17101,931
17103,931
17105,931
17107,932
17109,931
17111,931
17113,931
17115,931
17117,931
17119,931
17121,931
17123,931
17125,931
17127,931
17129,931
17131,931
17133,931
17135,931
17137,931
17139,931
17141,931
17143,931
17145,931
17147,931
17149,931
17151,931
17153,931
17155,931
17157,931
17159,931
17161,931
17163,931
17165,931
17167,909
17170,885
17172,879
17174,859
17176,861
17178,857
17180,910
17182,926
17184,931
17186,931
17188,930
17190,919
17192,896
17194,893
17196,892
17198,908
17200,931
17202,931
17204,931
17206,931
17208,931
17210,931
17213,931
17215,930
17217,916
17219,876
17221,838
17223,803
17225,769
17227,737
17229,708
17231,681
17233,662
17235,660
17237,654
17239,636
17241,649
17243,648
17245,627
17247,609
17249,607
17251,616
17253,616
17255,637
17257,635
17259,610
17261,592
17263,578
17265,557
17267,537
17269,513
17271,493
17273,681
17275,696
17277,757
17279,931
17281,931
17283,931
17285,931
17287,931
17289,931
17291,931
17293,931
17295,931
17298,931
17300,931
17302,931
17304,931
17306,931
17308,931
17310,931
17312,931
17314,931
17316,931
17318,931
17320,924
17322,886
17324,855
17326,825
17328,818
17330,825
17332,803
17334,788
17336,761
17338,780
17341,797
17343,802
17345,825
17347,806
17349,832
17351,854
17353,895
17355,915
17357,901
17359,931
17361,931
17363,931
17365,931
17367,931
17369,931
17371,928
17373,887
17375,856
17377,837
17379,809
17381,773
17383,756
17385,728
17387,702
17389,680
17391,768
17393,833
17395,869
17397,931
17399,931
17401,930
17403,930
17405,923
17407,889
17409,862
17411,837
17413,808
17415,776
17417,763
17419,823
17421,842
17423,887
17426,931
17428,931
17430,930
17432,915
17434,876
17436,848
17438,830
17440,812
17442,784
17444,823
17446,822
17448,805
17450,786
17452,797
17454,777
17456,803
17458,858
17460,884
17462,862
17464,845
17466,817
17469,787
17471,758
17473,753
17475,738
17477,725
17479,702
17481,680
17483,671
17485,649
17487,767
17489,859
17491,887
17493,931
17495,931
17497,931
17499,931
17501,930
17503,913
17505,923
17507,931
17509,931
17511,931
17513,931
17515,931
17517,931
17519,931
17521,931
17523,931
17525,931
17527,930
17529,922
17531,911
17533,898
17535,880
17537,909
17539,900
17541,908
17543,930
17545,918
17547,931
17549,931
17551,930
17554,900
17556,870
17558,844
17560,828
17562,795
17564,776
17566,753
17568,756
17570,765
17572,744
17574,749
17576,754
17578,730
17580,698
17582,673
17584,646
17586,620
17588,602
17590,582
17592,576
17594,567
17597,547
17599,618
17601,677
17603,686
17605,699
17607,743
17609,808
17611,872
17613,886
17615,861
17617,834
17619,813
17621,798
17623,781
17625,771
17627,762
17629,744
17631,723
17633,708
17635,682
17637,662
17639,659
17641,646
17643,625
17645,611
17647,594
17649,568
17651,551
17653,547
17655,548
17657,583
17659,623
17661,615
17663,661
17665,696
17667,675
17669,649
17671,630
17673,613
17675,594
17677,609
17679,619
17682,600
17684,590
17686,658
17688,729
17690,726
17692,776
17694,846
17696,847
17698,814
17700,782
17702,757
17704,732
17706,711
17708,918
17710,902
17712,874
17714,848
17716,834
17718,808
17720,794
17722,804
17725,803
17727,795
17729,797
17731,803
17733,781
17735,758
17737,792
17739,840
17741,831
17743,833
17745,848
17747,843
17749,860
17751,846
17753,893
17755,922
17757,893
17759,866
17761,850
17763,820
17765,790
17767,777
17769,750
17771,732
17773,744
17775,806
17777,861
17779,848
17781,884
17783,929
17785,931
17787,923
17789,887
17791,849
17793,816
17795,786
17797,759
17799,742
17801,736
17803,763
17805,848
17807,913
17810,904
17812,931
17814,931
17816,931
17818,931
17820,931
17822,931
17824,931
17826,931
17828,931
17830,931
17832,931
17834,931
17836,925
17838,904
17840,895
17842,870
17844,851
17846,849
17848,827
17850,791
17853,758
17855,727
17857,706
17859,693
17861,679
17863,657
17865,629
17867,621
17869,620
17871,611
17873,589
17875,573
17877,564
17879,554
17881,574
17883,607
17885,611
17887,610
17889,655
17891,688
17893,675
17895,662
17897,643
17899,621
17901,621
17903,616
17905,617
17907,631
17909,621
17911,602
17913,598
17915,585
17917,561
17919,538
17921,514
17923,491
17925,472
17927,452
17929,433
17931,414
17933,397
17935,385
17938,386
17940,395
17942,387
17944,378
17946,377
17948,374
17950,366
17952,366
17954,401
17956,430
17958,430
17960,483
17962,528
17964,525
17966,507
17968,486
17970,475
17972,470
17974,462
17976,453
17978,438
17981,421
17983,411
17985,401
17987,386
17989,370
17991,356
17993,343
17995,331
17997,317
17999,303
18001,290
18003,277
18005,266
18007,254
18009,246
18011,237
18013,229
18015,220
18017,211
18019,202
18021,195
18023,191
18025,187
18027,181
18029,175
18031,172
18033,168
18035,162
18037,156
18039,150
18041,146
18043,143
18045,139
18047,135
18049,132
18051,129
18053,127
18055,126
18057,122
18059,117
18061,120
18063,124
18066,120
18068,122
18070,125
18072,122
18074,122
18076,137
18078,141
18080,143
18082,141
18084,137
18086,135
18088,136
18090,134
18092,131
18094,132
18096,136
18098,136
18100,152
18102,149
18104,145
18106,143
18109,141
18111,138
18113,141
18115,141
18117,138
18119,134
18121,135
18123,134
18125,131
18127,132
18129,132
18131,133
18133,130
18135,128
18137,129
18139,153
18141,163
18143,178
18145,171
18147,168
18149,167
18151,170
18153,173
18155,169
18157,163
18159,161
18161,160
18163,162
18165,159
18167,152
18169,152
18171,150
18173,148
18175,142
18177,143
18179,143
18181,145
18183,236
18185,531
18187,599
18189,634
18191,651
18194,654
18196,652
18198,632
18200,618
18202,620
18204,622
18206,601
18208,577
18210,552
18212,541
18214,931
18216,931
18218,931
18220,931
18222,931
18224,931
18226,931
18228,931
18230,931
18232,931
18234,931
18237,931
18239,931
18241,931
18243,931
18245,931
18247,931
18249,931
18251,931
18253,931
18255,931
18257,932
18259,931
18261,931
18263,931
18265,931
18267,931
18269,931
18271,931
18273,931
18275,931
18277,931
18279,931
18281,931
18283,931
18285,931
18287,932
18289,931
18291,931
18293,931
18295,931
18297,932
18299,931
18301,931
18303,931
18305,931
18307,931
18309,931
18311,931
18313,931
18315,931
18317,931
18319,931
18322,931
18324,931
18326,931
18328,931
18330,931
18332,931
18334,931
18336,931
18338,931
18340,931
18342,931
18344,931
18346,931
18348,931
18350,931
18352,931
18354,931
18356,931
18358,931
18360,931
18362,931
18365,931
18367,931
18369,931
18371,931
18373,931
18375,931
18377,931
18379,931
18381,931
18383,931
18385,931
18387,931
18389,931
18391,931
18393,931
18395,929
18397,892
18399,852
18401,816
18403,781
18405,746
18407,730
18409,697
18411,668
18413,639
18415,611
18417,586
18419,561
18421,538
18423,515
18425,503
18427,507
18429,508
18431,492
18433,482
18435,486
18437,497
18439,505
18441,792
18443,805
18445,805
18447,792
18450,783
18452,783
18454,777
18456,756
18458,737
18460,735
18462,720
18464,703
18466,715
18468,732
18470,726
18472,698
18474,669
18476,639
18478,612
18480,587
18482,567
18484,552
18486,532
18488,516
18490,497
18493,497
18495,518
18497,552
18499,564
18501,544
18503,538
18505,668
18507,743
18509,804
18511,822
18513,798
18515,764
18517,731
18519,712
18521,695
18523,668
18525,650
18527,645
18529,639
18531,616
18533,601
18535,596
18537,931
18539,931
18541,931
18543,931
18545,931
18547,931
18549,931
18551,931
18553,931
18555,931
18557,931
18559,931
18561,931
18563,931
18565,931
18567,931
18569,931
18571,931
18573,931
18575,931
18578,931
18580,931
18582,931
18584,931
18586,931
18588,931
18590,931
18592,931
18594,931
18596,931
18598,931
18600,931
18602,931
18604,931
18606,931
18608,931
18610,931
18612,931
18614,931
18616,931
18618,931
18621,931
18623,931
18625,931
18627,931
18629,931
18631,931
18633,931
18635,931
18637,931
18639,931
18641,931
18643,931
18645,931
18647,931
18649,931
18651,931
18653,931
18655,931
18657,931
18659,931
18661,931
18663,931
18665,931
18667,931
18669,931
18671,931
18673,931
18675,930
18677,911
18679,882
18681,888
18683,904
18685,886
18687,899
18689,931
18691,931
18693,930
18695,908
18697,897
18699,930
18701,929
18703,931
18706,931
18708,931
18710,931
18712,931
18714,931
18716,931
18718,931
18720,931
18722,931
18724,931
18726,931
18728,931
18730,931
18732,931
18734,931
18736,931
18738,931
18740,931
18742,931
18744,931
18746,931
18749,931
18751,931
18753,931
18755,931
18757,931
18759,931
18761,931
18763,931
18765,931
18767,931
18769,931
18771,931
18773,931
18775,931
18777,931
18779,931
18781,931
18783,931
18785,931
18787,931
18789,931
18791,931
18793,931
18795,931
18797,931
18799,931
18801,931
18803,931
18805,931
18807,931
18809,931
18811,931
18813,931
18815,931
18817,931
18819,931
18821,931
18823,931
18825,931
18827,931
18829,932
18831,931
18834,931
18836,931
18838,931
18840,931
18842,931
18844,931
18846,931
18848,931
18850,932
18852,931
18854,931
18856,931
18858,931
18860,931
18862,931
18864,931
18866,931
18868,931
18870,931
18872,931
18874,932
18877,932
18879,931
18881,931
18883,931
18885,931
18887,931
18889,931
18891,931
18893,931
18895,931
18897,932
18899,931
18901,931
18903,931
18905,931
18907,931
18909,931
18911,931
18913,931
18915,931
18917,931
18919,931
18921,931
18923,931
18925,931
18927,931
18929,932
18931,931
18933,931
18935,931
18937,932
18939,931
18941,931
18943,931
18945,931
18947,931
18949,931
18951,931
18953,931
18955,931
18957,931
18959,931
18962,931
18964,931
18966,931
18968,931
18970,931
18972,931
18974,931
18976,931
18978,931
18980,931
18982,931
18984,931
18986,931
18988,931
18990,931
18992,931
18994,931
18996,932
18998,931
19000,932
19002,931
19005,931
19007,932
19009,932
19011,931
19013,931
19015,932
19017,931
19019,931
19021,931
19023,931
19025,931
19027,931
19029,931
19031,932
19033,932
19035,931
19037,932
19039,931
19041,931
19043,931
19045,932
19047,932
19049,932
19051,931
19053,931
19055,932
19057,931
19059,931
19061,931
19063,931
19065,931
19067,931
19069,931
19071,931
19073,931
19075,931
19077,931
19079,931
19081,932
19083,931
19085,931
19087,931
19090,931
19092,931
19094,932
19096,931
19098,931
19100,932
19102,932
19104,931
19106,931
19108,931
19110,932
19112,931
19114,931
19116,931
19118,932
19120,931
19122,931
19124,932
19126,931
19128,931
19130,931
19133,931
19135,931
19137,931
19139,931
19141,931
19143,932
19145,931
19147,931
19149,931
19151,932
19153,931
19155,932
19157,931
19159,932
19161,931
19163,932
19165,932
19167,931
19169,931
19171,931
19173,931
19175,932
19177,932
19179,932
19181,932
19183,931
19185,931
19187,931
19189,931
19191,931
19193,932
19195,931
19197,931
19199,931
19201,932
19203,931
19205,931
19207,931
19209,931
19211,931
19213,932
19215,932
19218,931
19220,931
19222,931
19224,931
19226,931
19228,931
19230,931
19232,931
19234,931
19236,931
19238,931
19240,931
19242,931
19244,931
19246,931
19248,931
19250,931
19252,932
19254,931
19256,931
19258,931
19261,931
19263,931
19265,931
19267,931
19269,931
19271,931
19273,931
19275,931
19277,931
19279,931
19281,931
19283,931
19285,931
19287,931
19289,931
19291,931
19293,931
19295,931
19297,931
19299,931
19301,931
19303,931
19305,931
19307,931
19309,931
19311,931
19313,931
19315,931
19317,931
19319,931
19321,931
19323,931
19325,931
19327,931
19329,931
19331,931
19333,931
19335,931
19337,931
19339,931
19341,931
19343,931
19346,931
19348,931
19350,931
19352,931
19354,931
19356,931
19358,931
19360,931
19362,924
19364,881
19366,849
19368,814
19370,791
19372,763
19374,777
19376,821
19378,823
19380,897
19382,910
19384,889
19386,855
19389,820
19391,786
19393,754
19395,722
19397,692
19399,665
19401,640
19403,614
19405,590
19407,564
19409,542
19411,518
19413,496
19415,502
19417,490
19419,498
19421,492
19423,493
19425,480
19427,470
19429,467
19431,464
19433,458
19435,453
19437,456
19439,470
19441,479
19443,491
19445,514
19447,512
19449,563
19451,673
19453,700
19455,803
19457,846
19459,839
19461,822
19463,795
19465,780
19467,749
19469,732
19471,712
19474,703
19476,691
19478,665
19480,636
19482,608
19484,582
19486,563
19488,605
19490,616
19492,654
19494,700
19496,680
19498,652
19500,634
19502,653
19504,645
19506,655
19508,665
19510,640
19512,622
19514,598
19517,578
19519,658
19521,715
19523,755
19525,835
19527,831
19529,796
19531,774
19533,763
19535,737
19537,715
19539,701
19541,736
19543,756
19545,743
19547,762
19549,755
19551,727
19553,699
19555,691
19557,683
19559,671
19561,662
19563,676
19565,669
19567,655
19569,639
19571,635
19573,648
19575,626
19577,601
19579,583
19581,588
19583,607
19585,599
19587,662
19589,748
19591,748
19593,725
19595,705
19597,685
19599,666
19602,652
19604,670
19606,697
19608,736
19610,726
19612,775
19614,801
19616,789
19618,757
19620,731
19622,712
19624,719
19626,742
19628,725
19630,738
19632,742
19634,713
19636,746
19638,768
19640,757
19642,770
19645,762
19647,731
19649,726
19651,739
19653,724
19655,708
19657,685
19659,693
19661,758
19663,748
19665,776
19667,799
19669,859
19671,875
19673,914
19675,931
19677,931
19679,931
19681,931
19683,931
19685,924
19687,901
19689,864
19691,840
19693,824
19695,870
19697,883
19699,864
19701,909
19703,931
19705,930
19707,907
19709,914
19711,930
19713,917
19715,911
19717,929
19719,929
19721,893
19723,858
19725,827
19727,797
19730,790
19732,867
19734,931
19736,931
19738,931
19740,931
19742,931
19744,931
19746,931
19748,931
19750,931
19752,931
19754,931
19756,931
19758,931
19760,931
19762,931
19764,931
19766,925
19768,893
19770,869
19773,837
19775,832
19777,822
19779,787
19781,754
19783,723
19785,697
19787,691
19789,720
19791,715
19793,690
19795,678
19797,684
19799,708
19801,708
19803,683
19805,677
19807,680
19809,666
19811,642
19813,640
19815,635
19817,612
19819,620
19821,643
19823,639
19825,622
19827,606
19829,590
19831,566
19833,544
19835,566
19837,640
19839,677
19841,659
19843,672
19845,716
19847,768
19849,814
19851,809
19853,773
19855,741
19858,719
19860,704
19862,703
19864,713
19866,721
19868,713
19870,689
19872,692
19874,695
19876,697
19878,748
19880,747
19882,759
19884,803
19886,804
19888,816
19890,860
19892,907
19894,897
19896,931
19898,931
19901,931
19903,931
19905,919
19907,913
19909,900
19911,866
19913,835
19915,804
19917,776
19919,759
19921,763
19923,780
19925,769
19927,748
19929,746
19931,731
19933,710
19935,687
19937,660
19939,638
19941,671
19943,697
19945,733
19947,727
19949,700
19951,674
19953,652
19955,683
19957,726
19959,752
19961,761
19963,750
19965,723
19967,704
19969,678
19971,656
19973,704
19975,803
19977,839
19979,858
19981,931
19983,931
19986,931
19988,931
19990,919
19992,878
19994,849
19996,823
19998,798
20000,776
20002,780
20004,813
20006,859
20008,849
20010,861
20012,908
20014,926
20016,909
20018,875
20020,836
20022,827
20024,848
20026,856
20029,835
20031,811
20033,818
20035,807
20037,825
20039,895
20041,930
20043,914
20045,889
20047,893
20049,892
20051,869
20053,835
20055,804
20057,787
20059,815
20061,831
20063,807
20065,774
20067,745
20069,718
20071,706
20073,686
20075,673
20077,671
20079,663
20081,639
20083,631
20085,622
20087,601
20089,574
20091,549
20093,524
20095,501
20097,480
20099,460
20101,442
20103,424
20105,407
20107,390
20109,374
20111,363
20114,356
20116,361
20118,359
20120,348
20122,350
20124,380
20126,407
20128,404
20130,449
20132,508
20134,546
20136,550
20138,532
20140,511
20142,496
20144,483
20146,471
20148,459
20150,446
20152,432
20154,419
20157,404
20159,389
20161,372
20163,356
20165,341
20167,326
20169,311
20171,298
20173,285
20175,272
20177,261
20179,249
20181,239
20183,229
20185,219
20187,210
20189,201
20191,193
20193,185
20195,177
20197,169
20199,166
20201,159
20203,153
20205,147
20207,142
20209,143
20211,144
20213,140
20215,143
20217,148
20219,145
20221,140
20223,135
20225,129
20227,126
20229,120
20231,116
20233,113
20235,109
20237,105
20239,104
20242,102
20244,102
20246,99
20248,96
20250,95
20252,96
20254,96
20256,98
20258,97
20260,94
20262,91
20264,88
20266,85
20268,83
20270,83
20272,80
20274,79
20276,78
20278,76
20280,73
20282,70
20285,71
20287,70
20289,72
20291,72
20293,69
20295,72
20297,74
20299,81
20301,79
20303,76
20305,78
20307,80
20309,79
20311,402
20313,467
20315,514
20317,532
20319,542
20321,543
20323,538
20325,543
20327,543
20329,530
20331,519
20333,502
20335,492
20337,472
20339,456
20341,440
20343,421
20345,407
20347,391
20349,376
20351,363
20353,349
20355,343
20357,331
20359,316
20361,303
20363,291
20365,288
20367,276
20370,264
20372,253
20374,371
20376,377
20378,377
20380,372
20382,383
20384,386
20386,373
20388,368
20390,361
20392,371
20394,361
20396,354
20398,356
20400,358
20402,352
20404,343
20406,548
20408,542
20410,584
20413,600
20415,592
20417,570
20419,566
20421,571
20423,562
20425,546
20427,529
20429,518
20431,499
20433,480
20435,472
20437,864
20439,931
20441,931
20443,931
20445,931
20447,931
20449,932
20451,931
20453,931
20455,931
20457,931
20459,931
20461,931
20463,931
20465,931
20467,931
20469,931
20471,931
20473,931
20475,931
20477,931
20479,931
20481,931
20483,931
20485,931
20487,931
20489,931
20491,931
20493,931
20495,931
20498,931
20500,931
20502,931
20504,931
20506,931
20508,931
20510,931
20512,931
20514,931
20516,931
20518,931
20520,931
20522,931
20524,931
20526,931
20528,931
20530,931
20532,931
20534,931
20536,931
20538,931
20541,931
20543,931
20545,932
20547,931
20549,931
20551,931
20553,931
20555,931
20557,931
20559,932
20561,932
20563,931
20565,931
20567,931
20569,932
20571,931
20573,931
20575,931
20577,931
20579,931
20581,931
20583,931
20585,931
20587,931
20589,931
20591,931
20593,931
20595,931
20597,931
20599,931
20601,932
20603,931
20605,931
20607,931
20609,932
20611,931
20613,931
20615,932
20617,931
20619,931
20621,931
20623,931
20626,932
20628,931
20630,931
20632,931
20634,931
20636,932
20638,931
20640,931
20642,931
20644,931
20646,931
20648,932
20650,931
20652,931
20654,931
20656,931
20658,931
20660,931
20662,931
20664,931
20666,931
20669,931
20671,931
20673,931
20675,931
20677,931
20679,931
20681,931
20683,931
20685,931
20687,931
20689,931
20691,931
20693,931
20695,931
20697,931
20699,931
20701,931
20703,931
20705,931
20707,931
20709,931
20711,931
20713,931
20715,931
20717,931
20719,931
20721,931
20723,931
20725,931
20727,931
20729,931
20731,931
20733,931
20735,931
20737,931
20739,931
20741,931
20743,931
20745,931
20747,931
20749,931
20751,931
20754,931
20756,931
20758,931
20760,930
20762,915
20764,900
20766,879
20768,877
20770,887
20772,889
20774,874
20776,914
20778,931
20780,927
20782,894
20784,863
20786,831
20788,817
20790,790
20792,788
20794,884
20797,931
20799,931
20801,931
20803,931
20805,931
20807,931
20809,931
20811,931
20813,931
20815,931
20817,931
20819,931
20821,931
20823,931
20825,931
20827,931
20829,931
20831,931
20833,931
20835,931
20837,931
20839,931
20841,931
20843,931
20845,931
20847,931
20849,931
20851,931
20853,931
20855,931
20857,931
20859,931
20861,931
20863,931
20865,931
20867,931
20869,931
20871,931
20873,931
20875,931
20877,931
20879,931
20882,931
20884,931
20886,931
20888,931
20890,931
20892,931
20894,931
20896,931
20898,931
20900,931
20902,931
20904,931
20906,931
20908,931
20910,931
20912,931
20914,931
20916,931
20918,931
20920,931
20922,931
20925,931
20927,931
20929,931
20931,931
20933,931
20935,931
20937,931
20939,931
20941,931
20943,931
20945,931
20947,931
20949,931
20951,931
20953,931
20955,931
20957,931
20959,931
20961,931
20963,931
20965,931
20967,931
20969,931
20971,931
20973,931
20975,931
20977,931
20979,931
20981,931
20983,931
20985,931
20987,932
20989,931
20991,931
20993,931
20995,931
20997,931
20999,932
21001,931
21003,931
21005,931
21007,932
21010,931
21012,931
21014,931
21016,931
21018,931
21020,931
21022,931
21024,931
21026,931
21028,931
21030,931
21032,931
21034,931
21036,931
21038,931
21040,931
21042,931
21044,931
21046,932
21048,931
21050,931
21053,931
21055,931
21057,931
21059,931
21061,931
21063,931
21065,931
21067,931
21069,931
21071,931
21073,931
21075,931
21077,931
21079,931
21081,931
21083,931
21085,931
21087,931
21089,931
21091,931
21093,931
21095,931
21097,931
21099,931
21101,931
21103,931
21105,931
21107,931
21109,932
21111,931
21113,931
21115,931
21117,931
21119,931
21121,931
21123,931
21125,931
21127,931
21129,931
21131,931
21133,931
21135,931
21138,931
21140,931
21142,931
21144,931
21146,931
21148,931
21150,931
21152,931
21154,932
21156,932
21158,931
21160,931
21162,931
21164,931
21166,931
21168,931
21170,932
21172,931
21174,931
21176,931
21178,931
21181,931
21183,931
21185,931
21187,931
21189,931
21191,931
21193,931
21195,931
21197,931
21199,931
21201,931
21203,931
21205,932
21207,931
21209,931
21211,931
21213,931
21215,931
21217,931
21219,931
21221,931
21223,931
21225,932
21227,931
21229,932
21231,931
21233,931
21235,931
21237,931
21239,931
21241,931
21243,931
21245,931
21247,931
21249,931
21251,932
21253,931
21255,931
21257,931
21259,931
21261,931
21263,932
21266,931
21268,931
21270,932
21272,931
21274,931
21276,931
21278,931
21280,932
21282,931
21284,931
21286,931
21288,931
21290,931
21292,931
21294,932
21296,932
21298,931
21300,931
21302,931
21304,931
21306,932
21309,932
21311,932
21313,931
21315,931
21317,931
21319,932
21321,931
21323,931
21325,931
21327,932
21329,932
21331,931
21333,931
21335,932
21337,932
21339,932
21341,931
21343,931
21345,931
21347,931
21349,931
21351,932
21353,932
21355,932
21357,931
21359,931
21361,931
21363,931
21365,932
21367,931
21369,931
21371,931
21373,932
21375,931
21377,931
21379,932
21381,932
21383,931
21385,931
21387,931
21389,931
21391,931
21394,931
21396,931
21398,931
21400,931
21402,931
21404,931
21406,932
21408,931
21410,931
21412,931
21414,931
21416,931
21418,931
21420,931
21422,931
21424,931
21426,932
21428,931
21430,931
21432,932
21434,931
21437,931
21439,931
21441,931
21443,931
21445,931
21447,931
21449,931
21451,931
21453,931
21455,931
21457,931
21459,931
21461,931
21463,931
21465,931
21467,931
21469,931
21471,931
21473,931
21475,931
21477,931
21479,931
21481,931
21483,931
21485,931
21487,931
21489,931
21491,931
21493,931
21495,931
21497,931
21499,932
21501,931
21503,931
21505,931
21507,931
21509,931
21511,931
21513,931
21515,931
21517,931
21519,931
21522,931
21524,931
21526,931
21528,931
21530,931
21532,931
21534,930
21536,914
21538,877
21540,897
21542,931
21544,931
21546,931
21548,931
21550,931
21552,931
21554,931
21556,931
21558,931
21560,931
21562,931
21565,931
21567,931
21569,931
21571,931
21573,931
21575,931
21577,931
21579,930
21581,894
21583,857
21585,822
21587,786
21589,754
21591,722
21593,695
21595,675
21597,664
21599,643
21601,646
21603,640
21605,616
21607,607
21609,615
21611,602
21613,595
21615,576
21617,553
21619,546
21621,542
21623,561
21625,593
21627,591
21629,618
21631,694
21633,738
21635,800
21637,876
21639,867
21641,906
21643,917
21645,931
21647,931
21650,931
21652,931
21654,931
21656,930
21658,901
21660,892
21662,910
21664,896
21666,901
21668,891
21670,864
21672,854
21674,829
21676,796
21678,767
21680,755
21682,728
21684,706
21686,684
21688,662
21690,635
21693,613
21695,598
21697,580
21699,670
21701,710
21703,755
21705,850
21707,858
21709,834
21711,866
21713,931
21715,931
21717,931
21719,931
21721,931
21723,931
21725,931
21727,931
21729,931
21731,931
21733,931
21735,931
21737,931
21739,931
21741,931
21743,926
21745,930
21747,931
21749,931
21751,931
21753,931
21755,931
21757,931
21759,931
21761,931
21763,931
21765,931
21767,931
21769,931
21771,931
21773,931
21775,931
21778,931
21780,931
21782,931
21784,931
21786,931
21788,930
21790,931
21792,931
21794,931
21796,931
21798,931
21800,931
21802,931
21804,931
21806,931
21808,931
21810,931
21812,931
21814,931
21816,931
21818,931
21821,931
21823,931
21825,931
21827,931
21829,931
21831,931
21833,931
21835,931
21837,931
21839,931
21841,931
21843,931
21845,931
21847,931
21849,931
21851,931
21853,931
21855,931
21857,931
21859,931
21861,931
21863,931
21865,931
21867,931
21869,931
21871,931
21873,931
21875,931
21877,931
21879,931
21881,931
21883,931
21885,931
21887,931
21889,931
21891,931
21893,931
21895,931
21897,931
21899,931
21901,931
21903,931
21906,931
21908,931
21910,931
21912,931
21914,931
21916,931
21918,931
21920,931
21922,931
21924,931
21926,931
21928,931
21930,931
21932,930
21934,917
21936,912
21938,888
21940,886
21942,871
21944,873
21946,859
21949,878
21951,885
21953,931
21955,931
21957,931
21959,931
21961,931
21963,931
21965,931
21967,931
21969,931
21971,931
21973,930
21975,924
21977,923
21979,893
21981,858
21983,860
21985,876
21987,878
21989,855
21991,854
21993,858
21995,843
21997,840
21999,843
22001,819
22003,817
22005,794
22007,777
22009,775
22011,756
22013,732
22015,733
22017,740
22019,726
22021,697
22023,712
22025,750
22027,730
22029,731
22031,707
22034,694
22036,683
22038,686
22040,667
22042,654
22044,647
22046,622
22048,605
22050,583
22052,570
22054,550
22056,527
22058,507
22060,498
22062,501
22064,493
22066,474
22068,467
22070,460
22072,446
22074,433
22077,526
22079,728
22081,782
22083,880
22085,931
22087,931
22089,931
22091,931
22093,931
22095,931
22097,930
22099,930
22101,931
22103,931
22105,931
22107,931
22109,931
22111,931
22113,931
22115,931
22117,931
22119,931
22121,931
22123,931
22125,931
22127,924
22129,892
22131,864
22133,838
22135,813
22137,830
22139,856
22141,834
22143,847
22145,870
22147,852
22149,874
22151,881
22153,857
22155,873
22157,876
22159,850
22162,858
22164,852
22166,823
22168,812
22170,808
22172,815
22174,838
22176,841
22178,808
22180,779
22182,762
22184,754
22186,743
22188,721
22190,692
22192,665
22194,641
22196,620
22198,596
22200,570
22202,548
22205,529
22207,509
22209,488
22211,467
22213,453
22215,483
22217,559
22219,604
22221,606
22223,618
22225,663
22227,704
22229,758
22231,768
22233,738
22235,705
22237,675
22239,653
22241,688
22243,739
22245,756
22247,743
22249,739
22251,751
22253,729
22255,704
22257,688
22259,712
22261,739
22263,721
22265,710
22267,685
22269,670
22271,660
22273,639
22275,618
22277,603
22279,587
22281,571
22283,556
22285,551
22287,548
22290,530
22292,518
22294,512
22296,496
22298,474
22300,453
22302,455
22304,522
22306,615
22308,639
22310,660
22312,724
22314,744
22316,732
22318,721
22320,709
22322,697
22324,685
22326,674
22328,666
22330,643
22333,614
22335,592
22337,585
22339,583
22341,569
22343,548
22345,535
22347,518
22349,495
22351,476
22353,459
22355,444
22357,429
22359,414
22361,402
22363,395
22365,392
22367,394
22369,388
22371,380
22373,393
22375,401
22377,396
22379,422
22381,458
22383,470
22385,466
22387,449
22389,429
22391,410
22393,392
22395,375
22397,375
22399,395
22401,424
22403,425
22405,426
22407,446
22409,461
22411,464
22413,454
22415,456
22418,475
22420,481
22422,468
22424,477
22426,488
22428,491
22430,480
22432,459
22434,440
22436,427
22438,426
22440,433
22442,437
22444,423
22446,424
22448,426
22450,415
22452,398
22454,381
22456,365
22458,349
22461,336
22463,327
22465,314
22467,300
22469,289
22471,278
22473,266
22475,256
22477,246
22479,236
22481,226
22483,217
22485,211
22487,204
22489,202
22491,195
22493,188
22495,181
22497,176
22499,170
22501,166
22503,164
22505,157
22507,151
22509,145
22511,139
22513,135
22515,135
22517,132
22519,129
22521,125
22523,119
22525,115
22527,113
22529,109
22531,106
22533,101
22535,99
22537,95
22539,94
22541,90
22543,88
22546,86
22548,85
22550,81
22552,82
22554,82
22556,80
22558,79
22560,78
22562,76
22564,76
22566,87
22568,90
22570,93
22572,93
22574,98
22576,98
22578,97
22580,96
22582,97
22584,99
22586,102
22589,101
22591,108
22593,121
22595,120
22597,121
22599,138
22601,143
22603,138
22605,133
22607,129
22609,127
22611,126
22613,125
22615,123
22617,121
22619,119
22621,120
22623,120
22625,122
22627,120
22629,117
22631,115
22633,118
22635,120
22637,127
22639,129
22641,140
22643,147
22645,144
22647,155
22649,156
22651,156
22653,157
22655,156
22657,175
22659,180
22661,188
22663,201
22665,380
22667,408
22669,418
22671,410
22674,415
22676,405
22678,412
22680,413
22682,414
22684,401
22686,395
22688,386
22690,380
22692,373
22694,703
22696,758
22698,931
22700,931
22702,931
22704,931
22706,931
22708,931
22710,931
22712,931
22714,931
22717,931
22719,931
22721,930
22723,892
22725,900
22727,931
22729,931
22731,931
22733,931
22735,931
22737,931
22739,931
22741,931
22743,932
22745,931
22747,931
22749,931
22751,931
22753,931
22755,931
22757,931
22759,931
22761,932
22763,931
22765,931
22767,931
22769,931
22771,931
22773,932
22775,931
22777,931
22779,931
22781,931
22783,931
22785,931
22787,931
22789,931
22791,931
22793,931
22795,931
22797,931
22799,931
22802,931
22804,931
22806,931
22808,931
22810,931
22812,931
22814,931
22816,931
22818,931
22820,931
22822,931
22824,931
22826,931
22828,931
22830,931
22832,931
22834,931
22836,931
22838,931
22840,931
22842,931
22845,931
22847,931
22849,931
22851,932
22853,931
22855,931
22857,931
22859,931
22861,931
22863,931
22865,931
22867,931
22869,931
22871,931
22873,931
22875,931
22877,931
22879,931
22881,931
22883,931
22885,931
22887,931
22889,931
22891,931
22893,931
22895,931
22897,931
22899,931
22901,931
22903,931
22905,931
22907,931
22909,931
22911,931
22913,931
22915,931
22917,931
22919,931
22921,931
22923,931
22925,930
22927,903
22930,869
22932,834
22934,809
22936,779
22938,747
22940,722
22942,699
22944,671
22946,651
22948,656
22950,660
22952,641
22954,641
22956,662
22958,666
22960,641
22962,617
22964,593
22966,567
22968,544
22970,520
22973,497
22975,477
22977,459
22979,446
22981,444
22983,454
22985,465
22987,456
22989,464
22991,493
22993,504
22995,498
22997,486
22999,467
23001,458
23003,448
23005,431
23007,413
23009,399
23011,382
23013,368
23015,365
23017,378
23019,413
23021,524
23023,537
23025,566
23027,562
23029,542
23031,553
23033,584
23035,601
23037,588
23039,597
23041,612
23043,615
23045,594
23047,672
23049,856
23051,903
23053,916
23055,907
23058,886
23060,862
23062,833
23064,834
23066,817
23068,816
23070,856
23072,862
23074,830
23076,805
23078,786
23080,797
23082,812
23084,790
23086,809
23088,874
23090,898
23092,875
23094,883
23096,890
23098,883
23101,847
23103,829
23105,808
23107,774
23109,750
23111,735
23113,713
23115,747
23117,783
23119,830
23121,820
23123,856
23125,931
23127,931
23129,931
23131,931
23133,930
23135,911
23137,929
23139,931
23141,931
23143,931
23145,931
23147,931
23149,931
23151,931
23153,931
23155,931
23157,931
23159,931
23161,931
23163,931
23165,931
23167,931
23169,931
23171,931
23173,931
23175,931
23177,931
23179,931
23181,931
23183,931
23186,931
23188,931
23190,931
23192,931
23194,931
23196,931
23198,931
23200,931
23202,931
23204,931
23206,931
23208,931
23210,931
23212,931
23214,931
23216,931
23218,931
23220,931
23222,931
23224,931
23226,931
23229,931
23231,931
23233,931
23235,931
23237,931
23239,931
23241,931
23243,931
23245,931
23247,931
23249,931
23251,931
23253,931
23255,931
23257,931
23259,931
23261,931
23263,931
23265,931
23267,931
23269,931
23271,931
23273,931
23275,931
23277,931
23279,931
23281,931
23283,931
23285,931
23287,931
23289,931
