Timestamp (ms),EMG Value,
0,270,
2,270,
4,269,
6,267,
8,260,
10,254,
12,247,
14,240,
16,234,
18,230,
20,221,
22,214,
24,205,
26,196,
28,188,
30,180,
32,174,
34,167,
36,160,
38,153,
40,150,
42,147,
44,142,
46,138,
48,134,
50,129,
52,123,
54,119,
56,114,
58,110,
61,105,
63,101,
65,97,
67,94,
69,90,
71,87,
73,83,
75,80,
77,77,
79,75,
81,72,
83,69,
85,67,
87,66,
89,64,
91,62,
93,61,
95,60,
97,58,
99,56,
101,54,
103,53,
105,51,
107,50,
109,48,
111,47,
113,45,
115,44,
117,42,
119,41,
121,40,
123,39,
125,38,
127,37,
129,36,
131,35,
133,34,
135,34,
137,33,
139,32,
141,32,
143,31,
146,30,
148,30,
150,29,
152,28,
154,28,
156,27,
158,27,
160,26,
162,26,
164,25,
166,25,
168,25,
170,25,
172,24,
174,26,
176,26,
178,27,
180,28,
182,27,
184,27,
186,26,
189,26,
191,26,
193,25,
195,24,
197,24,
199,24,
201,23,
203,24,
205,24,
207,23,
209,23,
211,23,
213,22,
215,22,
217,22,
219,21,
221,22,
223,21,
225,21,
227,21,
229,21,
231,20,
233,20,
235,20,
237,20,
239,20,
241,20,
243,20,
245,20,
247,19,
249,19,
251,23,
253,25,
255,24,
257,25,
259,27,
261,28,
263,27,
265,27,
267,26,
269,26,
271,27,
274,28,
276,28,
278,27,
280,27,
282,26,
284,160,
286,181,
288,196,
290,205,
292,209,
294,210,
296,209,
298,205,
300,202,
302,200,
304,194,
306,186,
308,178,
310,171,
312,165,
314,159,
317,153,
319,147,
321,143,
323,137,
325,132,
327,126,
329,121,
331,117,
333,112,
335,108,
337,104,
339,101,
341,97,
343,94,
345,90,
347,87,
349,84,
351,82,
353,81,
355,78,
357,76,
359,75,
361,72,
363,70,
365,68,
367,66,
369,64,
371,63,
373,61,
375,59,
377,57,
379,57,
381,58,
383,57,
385,55,
387,54,
389,52,
391,51,
393,50,
395,50,
397,49,
399,47,
402,47,
404,46,
406,46,
408,44,
410,44,
412,42,
414,41,
416,55,
418,54,
420,53,
422,53,
424,52,
426,51,
428,51,
430,53,
432,52,
434,51,
436,49,
438,48,
440,46,
442,45,
445,44,
447,43,
449,42,
451,41,
453,40,
455,39,
457,38,
459,39,
461,41,
463,43,
465,43,
467,45,
469,44,
471,43,
473,42,
475,41,
477,45,
479,46,
481,44,
483,43,
485,44,
487,43,
489,42,
491,41,
493,40,
495,39,
497,38,
499,38,
501,38,
503,38,
505,38,
507,40,
509,39,
511,38,
513,37,
515,36,
517,35,
519,34,
521,33,
523,32,
525,32,
527,31,
530,32,
532,33,
534,33,
536,34,
538,34,
540,33,
542,35,
544,189,
546,230,
548,254,
550,271,
552,283,
554,286,
556,282,
558,276,
560,272,
562,265,
564,255,
566,246,
568,238,
570,228,
573,221,
575,213,
577,206,
579,198,
581,191,
583,185,
585,179,
587,173,
589,166,
591,160,
593,154,
595,147,
597,141,
599,136,
601,131,
603,126,
605,121,
607,117,
609,116,
611,112,
613,107,
615,105,
617,101,
619,99,
621,96,
623,92,
625,89,
627,85,
629,83,
631,80,
633,77,
635,75,
637,72,
639,69,
641,67,
643,65,
645,63,
647,62,
649,64,
651,62,
653,61,
655,59,
658,58,
660,58,
662,57,
664,55,
666,53,
668,52,
670,52,
672,51,
674,49,
676,48,
678,49,
680,51,
682,53,
684,54,
686,54,
688,53,
690,53,
692,53,
694,52,
696,53,
698,52,
701,53,
703,55,
705,54,
707,55,
709,57,
711,60,
713,60,
715,60,
717,60,
719,62,
721,61,
723,63,
725,70,
727,74,
729,77,
731,84,
733,82,
735,80,
737,77,
739,78,
741,82,
743,81,
745,81,
747,82,
749,80,
751,77,
753,75,
755,72,
757,71,
759,68,
761,66,
763,64,
765,62,
767,63,
769,63,
771,61,
773,62,
775,61,
777,64,
779,63,
781,62,
783,63,
786,78,
788,84,
790,85,
792,86,
794,85,
796,94,
798,96,
800,99,
802,101,
804,102,
806,103,
808,105,
810,109,
812,108,
814,111,
816,111,
818,116,
820,115,
822,116,
824,117,
826,114,
829,112,
831,119,
833,121,
835,129,
837,125,
839,125,
841,121,
843,117,
845,116,
847,116,
849,116,
851,118,
853,118,
855,114,
857,113,
859,113,
861,113,
863,120,
865,116,
867,114,
869,111,
871,111,
873,109,
875,111,
877,112,
879,114,
881,115,
883,116,
885,116,
887,122,
889,122,
891,122,
893,118,
895,114,
897,113,
899,109,
901,114,
903,117,
905,112,
907,109,
909,112,
911,111,
914,112,
916,111,
918,109,
920,113,
922,115,
924,112,
926,112,
928,110,
930,111,
932,109,
934,110,
936,120,
938,122,
940,134,
942,163,
944,177,
946,179,
948,188,
950,191,
952,185,
954,180,
957,179,
959,196,
961,223,
963,247,
965,246,
967,275,
969,318,
971,334,
973,326,
975,325,
977,317,
979,314,
981,313,
983,316,
985,342,
987,371,
989,369,
991,380,
993,395,
995,385,
997,386,
999,388,
1001,381,
1003,403,
1005,415,
1007,431,
1009,482,
1011,500,
1013,483,
1015,478,
1017,466,
1019,456,
1021,504,
1023,565,
1025,573,
1027,655,
1029,740,
1031,743,
1033,786,
1035,874,
1037,931,
1039,930,
1042,892,
1044,864,
1046,847,
1048,830,
1050,847,
1052,889,
1054,930,
1056,918,
1058,931,
1060,931,
1062,931,
1064,930,
1066,931,
1068,931,
1070,931,
1072,931,
1074,931,
1076,931,
1078,931,
1080,931,
1082,931,
1085,931,
1087,923,
1089,904,
1091,914,
1093,921,
1095,895,
1097,914,
1099,929,
1101,898,
1103,874,
1105,842,
1107,809,
1109,786,
1111,768,
1113,747,
1115,749,
1117,757,
1119,768,
1121,781,
1123,805,
1125,800,
1127,809,
1129,903,
1131,931,
1133,931,
1135,931,
1137,931,
1139,931,
1141,931,
1143,931,
1145,931,
1147,931,
1149,931,
1151,931,
1153,931,
1155,931,
1157,931,
1159,931,
1161,931,
1163,931,
1165,931,
1167,931,
1170,931,
1172,931,
1174,931,
1176,931,
1178,931,
1180,931,
1182,931,
1184,931,
1186,931,
1188,931,
1190,931,
1192,931,
1194,931,
1196,931,
1198,931,
1200,931,
1202,931,
1204,931,
1206,931,
1208,931,
1210,931,
1213,931,
1215,931,
1217,931,
1219,931,
1221,931,
1223,931,
1225,931,
1227,931,
1229,931,
1231,931,
1233,931,
1235,931,
1237,931,
1239,931,
1241,931,
1243,931,
1245,932,
1247,931,
1249,932,
1251,931,
1253,931,
1255,931,
1257,931,
1259,931,
1261,931,
1263,931,
1265,931,
1267,931,
1269,931,
1271,931,
1273,931,
1275,931,
1277,931,
1279,931,
1281,931,
1283,931,
1285,931,
1287,931,
1289,931,
1291,931,
1293,931,
1295,931,
1298,931,
1300,931,
1302,931,
1304,931,
1306,931,
1308,931,
1310,932,
1312,932,
1314,932,
1316,932,
1318,931,
1320,931,
1322,931,
1324,931,
1326,931,
1328,931,
1330,931,
1332,932,
1334,931,
1336,932,
1338,932,
1341,931,
1343,932,
1345,932,
1347,932,
1349,932,
1351,931,
1353,932,
1355,932,
1357,932,
1359,932,
1361,931,
1363,932,
1365,932,
1367,932,
1369,932,
1371,931,
1373,931,
1375,932,
1377,931,
1379,932,
1381,932,
1383,931,
1385,932,
1387,931,
1389,932,
1391,932,
1393,932,
1395,931,
1397,931,
1399,932,
1401,931,
1403,932,
1405,932,
1407,931,
1409,932,
1411,931,
1413,932,
1415,931,
1417,932,
1419,932,
1421,931,
1423,931,
1426,931,
1428,931,
1430,931,
1432,932,
1434,931,
1436,931,
1438,932,
1440,931,
1442,931,
1444,932,
1446,932,
1448,931,
1450,932,
1452,932,
1454,931,
1456,932,
1458,931,
1460,932,
1462,932,
1464,931,
1466,932,
1469,931,
1471,932,
1473,932,
1475,931,
1477,931,
1479,931,
1481,931,
1483,931,
1485,931,
1487,931,
1489,931,
1491,931,
1493,931,
1495,931,
1497,931,
1499,931,
1501,931,
1503,931,
1505,931,
1507,931,
1509,932,
1511,931,
1513,932,
1515,932,
1517,932,
1519,932,
1521,932,
1523,932,
1525,931,
1527,931,
1529,932,
1531,932,
1533,932,
1535,932,
1537,932,
1539,932,
1541,932,
1543,932,
1545,932,
1547,932,
1549,932,
1551,932,
1554,932,
1556,932,
1558,931,
1560,932,
1562,932,
1564,932,
1566,932,
1568,932,
1570,932,
1572,932,
1574,932,
1576,931,
1578,932,
1580,932,
1582,932,
1584,932,
1586,932,
1588,931,
1590,931,
1592,932,
1594,932,
1597,932,
1599,932,
1601,932,
1603,932,
1605,932,
1607,931,
1609,932,
1611,932,
1613,932,
1615,931,
1617,932,
1619,932,
1621,932,
1623,932,
1625,931,
1627,932,
1629,932,
1631,931,
1633,932,
1635,932,
1637,931,
1639,932,
1641,931,
1643,932,
1645,932,
1647,931,
1649,931,
1651,931,
1653,932,
1655,932,
1657,932,
1659,931,
1661,931,
1663,932,
1665,931,
1667,931,
1669,932,
1671,931,
1673,932,
1675,931,
1677,931,
1679,931,
1682,932,
1684,932,
1686,932,
1688,931,
1690,932,
1692,931,
1694,931,
1696,932,
1698,932,
1700,931,
1702,932,
1704,932,
1706,932,
1708,932,
1710,932,
1712,932,
1714,932,
1716,931,
1718,931,
1720,931,
1722,931,
1725,931,
1727,931,
1729,931,
1731,931,
1733,931,
1735,931,
1737,931,
1739,931,
1741,931,
1743,932,
1745,931,
1747,932,
1749,931,
1751,931,
1753,931,
1755,931,
1757,931,
1759,931,
1761,931,
1763,931,
1765,931,
1767,931,
1769,931,
1771,931,
1773,931,
1775,931,
1777,931,
1779,931,
1781,931,
1783,931,
1785,931,
1787,931,
1789,931,
1791,931,
1793,931,
1795,931,
1797,931,
1799,931,
1801,931,
1803,931,
1805,931,
1807,931,
1810,931,
1812,931,
1814,931,
1816,931,
1818,931,
1820,931,
1822,931,
1824,931,
1826,931,
1828,931,
1830,930,
1832,922,
1834,930,
1836,918,
1838,883,
1840,874,
1842,847,
1844,828,
1846,794,
1848,764,
1850,734,
1853,724,
1855,756,
1857,752,
1859,793,
1861,791,
1863,779,
1865,779,
1867,769,
1869,810,
1871,820,
1873,843,
1875,829,
1877,807,
1879,828,
1881,816,
1883,785,
1885,752,
1887,727,
1889,701,
1891,676,
1893,660,
1895,649,
1897,622,
1899,598,
1901,578,
1903,557,
1905,539,
1907,523,
1909,530,
1911,515,
1913,503,
1915,509,
1917,502,
1919,523,
1921,542,
1923,579,
1925,585,
1927,597,
1929,589,
1931,565,
1933,552,
1935,609,
1938,612,
1940,663,
1942,684,
1944,661,
1946,650,
1948,658,
1950,634,
1952,608,
1954,590,
1956,599,
1958,600,
1960,579,
1962,559,
1964,535,
1966,517,
1968,501,
1970,491,
1972,483,
1974,493,
1976,493,
1978,490,
1981,483,
1983,486,
1985,498,
1987,561,
1989,584,
1991,593,
1993,636,
1995,694,
1997,695,
1999,670,
2001,667,
2003,658,
2005,643,
2007,621,
2009,607,
2011,591,
2013,575,
2015,558,
2017,541,
2019,529,
2021,520,
2023,509,
2025,496,
2027,489,
2029,478,
2031,484,
2033,500,
2035,549,
2037,567,
2039,629,
2041,617,
2043,605,
2045,610,
2047,685,
2049,695,
2051,735,
2053,769,
2055,776,
2057,819,
2059,804,
2061,778,
2063,756,
2066,727,
2068,718,
2070,717,
2072,753,
2074,739,
2076,768,
2078,790,
2080,766,
2082,733,
2084,706,
2086,707,
2088,689,
2090,679,
2092,739,
2094,734,
2096,798,
2098,817,
2100,804,
2102,834,
2104,844,
2106,879,
2109,897,
2111,880,
2113,869,
2115,845,
2117,829,
2119,806,
2121,799,
2123,769,
2125,782,
2127,827,
2129,818,
2131,853,
2133,827,
2135,802,
2137,786,
2139,768,
2141,752,
2143,727,
2145,710,
2147,701,
2149,675,
2151,665,
2153,644,
2155,631,
2157,639,
2159,626,
2161,602,
2163,592,
2165,593,
2167,589,
2169,603,
2171,662,
2173,659,
2175,678,
2177,710,
2179,767,
2181,913,
2183,929,
2185,890,
2187,862,
2189,887,
2191,896,
2194,874,
2196,862,
2198,850,
2200,842,
2202,832,
2204,818,
2206,822,
2208,796,
2210,768,
2212,734,
2214,706,
2216,699,
2218,700,
2220,696,
2222,677,
2224,683,
2226,660,
2228,662,
2230,677,
2232,664,
2234,696,
2237,721,
2239,725,
2241,727,
2243,700,
2245,710,
2247,719,
2249,719,
2251,771,
2253,770,
2255,758,
2257,753,
2259,761,
2261,733,
2263,717,
2265,694,
2267,681,
2269,663,
2271,664,
2273,691,
2275,680,
2277,686,
2279,691,
2281,690,
2283,665,
2285,637,
2287,613,
2289,590,
2291,570,
2293,550,
2295,528,
2297,506,
2299,492,
2301,508,
2303,515,
2305,495,
2307,491,
2309,521,
2311,522,
2313,547,
2315,609,
2317,625,
2319,606,
2322,588,
2324,572,
2326,553,
2328,579,
2330,590,
2332,593,
2334,631,
2336,619,
2338,606,
2340,580,
2342,557,
2344,534,
2346,513,
2348,497,
2350,479,
2352,460,
2354,441,
2356,426,
2358,448,
2360,486,
2362,482,
2365,504,
2367,511,
2369,541,
2371,538,
2373,570,
2375,611,
2377,597,
2379,632,
2381,675,
2383,664,
2385,667,
2387,656,
2389,635,
2391,669,
2393,714,
2395,697,
2397,682,
2399,679,
2401,669,
2403,647,
2405,647,
2407,642,
2409,620,
2411,598,
2413,578,
2415,559,
2417,541,
2419,523,
2421,503,
2423,485,
2425,467,
2427,448,
2429,433,
2431,417,
2433,404,
2435,417,
2437,436,
2439,429,
2441,428,
2443,435,
2445,442,
2447,466,
2450,509,
2452,510,
2454,501,
2456,510,
2458,505,
2460,525,
2462,558,
2464,553,
2466,531,
2468,543,
2470,579,
2472,587,
2474,585,
2476,613,
2478,612,
2480,596,
2482,572,
2484,551,
2486,531,
2488,512,
2490,494,
2493,476,
2495,460,
2497,443,
2499,425,
2501,408,
2503,391,
2505,375,
2507,360,
2509,344,
2511,329,
2513,323,
2515,352,
2517,400,
2519,414,
2521,425,
2523,454,
2525,451,
2527,436,
2529,437,
2531,463,
2533,473,
2535,470,
2537,454,
2539,440,
2541,479,
2543,539,
2545,550,
2547,580,
2549,638,
2551,630,
2553,621,
2555,600,
2557,591,
2559,579,
2561,558,
2563,534,
2565,515,
2567,497,
2569,482,
2571,467,
2573,450,
2575,433,
2578,416,
2580,399,
2582,382,
2584,367,
2586,351,
2588,336,
2590,324,
2592,321,
2594,342,
2596,370,
2598,370,
2600,377,
2602,403,
2604,421,
2606,435,
2608,437,
2610,423,
2612,414,
2614,404,
2616,395,
2618,397,
2621,397,
2623,387,
2625,395,
2627,390,
2629,375,
2631,360,
2633,349,
2635,338,
2637,324,
2639,314,
2641,302,
2643,289,
2645,277,
2647,265,
2649,254,
2651,244,
2653,234,
2655,224,
2657,214,
2659,205,
2661,198,
2663,193,
2665,185,
2667,179,
2669,172,
2671,165,
2673,159,
2675,153,
2677,146,
2679,141,
2681,135,
2683,131,
2685,127,
2687,129,
2689,127,
2691,130,
2693,135,
2695,134,
2697,129,
2699,124,
2701,119,
2703,115,
2706,111,
2708,107,
2710,105,
2712,104,
2714,102,
2716,99,
2718,96,
2720,93,
2722,89,
2724,86,
2726,83,
2728,80,
2730,78,
2732,75,
2734,73,
2736,72,
2738,69,
2740,67,
2742,64,
2744,63,
2746,62,
2749,63,
2751,61,
2753,60,
2755,59,
2757,58,
2759,59,
2761,61,
2763,61,
2765,59,
2767,57,
2769,57,
2771,56,
2773,55,
2775,53,
2777,52,
2779,52,
2781,51,
2783,51,
2785,50,
2787,51,
2789,50,
2791,49,
2793,49,
2795,49,
2797,49,
2799,48,
2801,47,
2803,47,
2805,48,
2807,50,
2809,54,
2811,53,
2813,53,
2815,52,
2817,53,
2819,55,
2821,58,
2823,60,
2825,61,
2827,62,
2829,63,
2831,63,
2834,61,
2836,61,
2838,60,
2840,58,
2842,65,
2844,72,
2846,77,
2848,79,
2850,78,
2852,76,
2854,89,
2856,98,
2858,106,
2860,102,
2862,103,
2864,102,
2866,104,
2868,105,
2870,108,
2872,116,
2874,115,
2877,112,
2879,115,
2881,114,
2883,119,
2885,119,
2887,125,
2889,125,
2891,124,
2893,124,
2895,129,
2897,132,
2899,138,
2901,134,
2903,129,
2905,129,
2907,126,
2909,128,
2911,124,
2913,122,
2915,122,
2917,122,
2919,123,
2921,130,
2923,132,
2925,140,
2927,140,
2929,139,
2931,139,
2933,141,
2935,142,
2937,153,
2939,151,
2941,146,
2943,147,
2945,160,
2947,157,
2949,160,
2951,166,
2953,168,
2955,168,
2957,165,
2959,167,
2962,170,
2964,186,
2966,191,
2968,185,
2970,190,
2972,190,
2974,196,
2976,201,
2978,214,
2980,207,
2982,200,
2984,195,
2986,196,
2988,192,
2990,190,
2992,195,
2994,193,
2996,195,
2998,193,
3000,200,
3002,194,
3005,188,
3007,192,
3009,191,
3011,186,
3013,186,
3015,182,
3017,176,
3019,176,
3021,183,
3023,180,
3025,178,
3027,176,
3029,171,
3031,174,
3033,174,
3035,176,
3037,192,
3039,195,
3041,199,
3043,200,
3045,199,
3047,199,
3049,199,
3051,202,
3053,201,
3055,208,
3057,212,
3059,205,
3061,197,
3063,192,
3065,185,
3067,192,
3069,190,
3071,190,
3073,196,
3075,198,
3077,197,
3079,199,
3081,200,
3083,211,
3085,204,
3087,198,
3090,191,
3092,184,
3094,179,
3096,176,
3098,169,
3100,163,
3102,160,
3104,162,
3106,164,
3108,173,
3110,168,
3112,168,
3114,170,
3116,171,
3118,175,
3120,383,
3122,403,
3124,421,
3126,429,
3128,428,
3130,417,
3133,405,
3135,396,
3137,398,
3139,403,
3141,394,
3143,378,
3145,368,
3147,362,
3149,360,
3151,371,
3153,398,
3155,444,
3157,612,
3159,708,
3161,789,
3163,790,
3165,760,
3167,728,
3169,705,
3171,687,
3173,672,
3175,665,
3177,641,
3179,618,
3181,599,
3183,587,
3185,598,
3187,617,
3189,614,
3191,613,
3193,642,
3195,637,
3197,617,
3199,612,
3201,598,
3203,582,
3205,592,
3207,602,
3209,590,
3211,589,
3213,628,
3215,660,
3218,805,
3220,819,
3222,844,
3224,833,
3226,823,
3228,815,
3230,803,
3232,776,
3234,748,
3236,716,
3238,694,
3240,688,
3242,688,
3244,667,
3246,672,
3248,675,
3250,661,
3252,720,
3254,831,
3256,877,
3258,862,
3261,831,
3263,796,
3265,781,
3267,787,
3269,798,
3271,789,
3273,758,
3275,726,
3277,704,
3279,686,
3281,657,
3283,646,
3285,659,
3287,650,
3289,668,
3291,727,
3293,745,
3295,720,
3297,709,
3299,719,
3301,770,
3303,806,
3305,847,
3307,834,
3309,847,
3311,821,
3313,787,
3315,776,
3317,931,
3319,930,
3321,927,
3323,914,
3325,920,
3327,931,
3329,931,
3331,931,
3333,931,
3335,931,
3337,931,
3339,928,
3341,913,
3343,917,
3346,900,
3348,868,
3350,845,
3352,909,
3354,931,
3356,931,
3358,931,
3360,931,
3362,931,
3364,931,
3366,931,
3368,931,
3370,931,
3372,931,
3374,931,
3376,931,
3378,931,
3380,931,
3382,931,
3384,931,
3386,931,
3389,931,
3391,931,
3393,931,
3395,931,
3397,931,
3399,931,
3401,931,
3403,931,
3405,931,
3407,931,
3409,931,
3411,931,
3413,931,
3415,931,
3417,931,
3419,931,
3421,931,
3423,931,
3425,931,
3427,931,
3429,931,
3431,931,
3433,931,
3435,931,
3437,931,
3439,931,
3441,931,
3443,931,
3445,931,
3447,931,
3449,931,
3451,931,
3453,931,
3455,931,
3457,931,
3459,931,
3461,932,
3463,931,
3465,931,
3467,932,
3469,931,
3471,931,
3474,931,
3476,931,
3478,931,
3480,931,
3482,931,
3484,931,
3486,931,
3488,931,
3490,931,
3492,931,
3494,932,
3496,931,
3498,931,
3500,931,
3502,931,
3504,932,
3506,932,
3508,931,
3510,931,
3512,931,
3514,931,
3517,931,
3519,931,
3521,931,
3523,931,
3525,931,
3527,931,
3529,931,
3531,931,
3533,931,
3535,932,
3537,931,
3539,931,
3541,932,
3543,931,
3545,931,
3547,932,
3549,931,
3551,931,
3553,931,
3555,931,
3557,932,
3559,931,
3561,931,
3563,931,
3565,931,
3567,931,
3569,931,
3571,931,
3573,931,
3575,932,
3577,931,
3579,931,
3581,932,
3583,931,
3585,932,
3587,931,
3589,931,
3591,931,
3593,931,
3595,932,
3597,931,
3599,931,
3602,932,
3604,931,
3606,931,
3608,932,
3610,932,
3612,931,
3614,932,
3616,932,
3618,931,
3620,931,
3622,932,
3624,931,
3626,931,
3628,931,
3630,931,
3632,931,
3634,932,
3636,932,
3638,932,
3640,931,
3642,931,
3645,932,
3647,932,
3649,931,
3651,932,
3653,931,
3655,931,
3657,931,
3659,931,
3661,931,
3663,931,
3665,931,
3667,931,
3669,932,
3671,931,
3673,931,
3675,932,
3677,932,
3679,932,
3681,932,
3683,931,
3685,931,
3687,931,
3689,932,
3691,932,
3693,931,
3695,932,
3697,931,
3699,932,
3701,932,
3703,932,
3705,932,
3707,932,
3709,932,
3711,932,
3713,931,
3715,932,
3717,931,
3719,932,
3721,932,
3723,932,
3725,931,
3727,932,
3730,931,
3732,931,
3734,931,
3736,932,
3738,931,
3740,931,
3742,931,
3744,931,
3746,931,
3748,932,
3750,931,
3752,931,
3754,931,
3756,931,
3758,931,
3760,931,
3762,932,
3764,932,
3766,931,
3768,932,
3770,931,
3773,932,
3775,932,
3777,932,
3779,931,
3781,932,
3783,932,
3785,932,
3787,932,
3789,932,
3791,931,
3793,932,
3795,932,
3797,932,
3799,932,
3801,932,
3803,931,
3805,932,
3807,931,
3809,932,
3811,932,
3813,932,
3815,931,
3817,932,
3819,932,
3821,932,
3823,932,
3825,932,
3827,931,
3829,932,
3831,931,
3833,932,
3835,932,
3837,932,
3839,932,
3841,932,
3843,932,
3845,932,
3847,932,
3849,931,
3851,932,
3853,931,
3855,932,
3858,932,
3860,932,
3862,931,
3864,932,
3866,932,
3868,932,
3870,932,
3872,932,
3874,932,
3876,932,
3878,932,
3880,931,
3882,932,
3884,932,
3886,932,
3888,932,
3890,932,
3892,932,
3894,931,
3896,931,
3898,932,
3901,932,
3903,931,
3905,932,
3907,931,
3909,931,
3911,931,
3913,931,
3915,932,
3917,932,
3919,932,
3921,932,
3923,932,
3925,932,
3927,932,
3929,931,
3931,931,
3933,932,
3935,931,
3937,931,
3939,931,
3941,932,
3943,931,
3945,931,
3947,931,
3949,931,
3951,931,
3953,931,
3955,931,
3957,931,
3959,931,
3961,931,
3963,931,
3965,931,
3967,931,
3969,931,
3971,931,
3973,931,
3975,931,
3977,931,
3979,931,
3981,931,
3983,931,
3986,931,
3988,931,
3990,931,
3992,931,
3994,931,
3996,931,
3998,931,
4000,931,
4002,931,
4004,931,
4006,931,
4008,931,
4010,931,
4012,931,
4014,929,
4016,929,
4018,899,
4020,860,
4022,824,
4024,787,
4026,752,
4029,719,
4031,690,
4033,661,
4035,636,
4037,609,
4039,584,
4041,568,
4043,550,
4045,534,
4047,522,
4049,507,
4051,513,
4053,514,
4055,518,
4057,510,
4059,526,
4061,543,
4063,532,
4065,516,
4067,498,
4069,477,
4071,467,
4073,448,
4075,432,
4077,419,
4079,408,
4081,401,
4083,384,
4085,375,
4087,363,
4089,355,
4091,506,
4093,499,
4095,499,
4097,492,
4099,493,
4101,537,
4103,610,
4105,618,
4107,600,
4109,576,
4111,555,
4114,534,
4116,516,
4118,496,
4120,474,
4122,472,
4124,458,
4126,438,
4128,423,
4130,465,
4132,501,
4134,548,
4136,631,
4138,632,
4140,633,
4142,626,
4144,615,
4146,617,
4148,603,
4150,581,
4152,573,
4154,575,
4157,562,
4159,584,
4161,568,
4163,556,
4165,593,
4167,599,
4169,653,
4171,649,
4173,629,
4175,606,
4177,585,
4179,574,
4181,573,
4183,557,
4185,559,
4187,563,
4189,579,
4191,573,
4193,567,
4195,561,
4197,614,
4199,609,
4201,675,
4203,702,
4205,695,
4207,673,
4209,670,
4211,663,
4213,654,
4215,668,
4217,666,
4219,678,
4221,690,
4223,676,
4225,651,
4227,639,
4229,615,
4231,596,
4233,595,
4235,648,
4237,666,
4239,705,
4242,714,
4244,728,
4246,768,
4248,931,
4250,931,
4252,931,
4254,931,
4256,931,
4258,931,
4260,931,
4262,931,
4264,930,
4266,900,
4268,864,
4270,868,
4272,889,
4274,920,
4276,931,
4278,931,
4280,931,
4282,931,
4285,931,
4287,931,
4289,931,
4291,931,
4293,931,
4295,931,
4297,923,
4299,892,
4301,903,
4303,916,
4305,881,
4307,856,
4309,879,
4311,870,
4313,843,
4315,822,
4317,808,
4319,813,
4321,787,
4323,757,
4325,730,
4327,719,
4329,700,
4331,675,
4333,646,
4335,620,
4337,703,
4339,732,
4341,760,
4343,815,
4345,819,
4347,857,
4349,837,
4351,820,
4353,817,
4355,867,
4357,907,
4359,897,
4361,868,
4363,834,
4365,799,
4367,772,
4370,751,
4372,727,
4374,708,
4376,684,
4378,657,
4380,632,
4382,615,
4384,593,
4386,582,
4388,574,
4390,556,
4392,544,
4394,532,
4396,526,
4398,544,
4400,549,
4402,551,
4404,531,
4406,524,
4408,566,
4410,593,
4413,664,
4415,710,
4417,722,
4419,800,
4421,795,
4423,816,
4425,880,
4427,877,
4429,853,
4431,878,
4433,911,
4435,930,
4437,902,
4439,871,
4441,833,
4443,799,
4445,931,
4447,931,
4449,931,
4451,930,
4453,908,
4455,895,
4457,903,
4459,903,
4461,871,
4463,838,
4465,800,
4467,768,
4469,737,
4471,719,
4473,738,
4475,731,
4477,711,
4479,687,
4481,698,
4483,690,
4485,747,
4487,809,
4489,811,
4491,788,
4493,795,
4495,878,
4498,925,
4500,917,
4502,931,
4504,931,
4506,931,
4508,931,
4510,930,
4512,896,
4514,862,
4516,830,
4518,800,
4520,772,
4522,747,
4524,724,
4526,712,
4528,704,
4530,677,
4532,660,
4534,644,
4536,617,
4538,595,
4541,574,
4543,559,
4545,553,
4547,562,
4549,549,
4551,566,
4553,570,
4555,623,
4557,639,
4559,661,
4561,722,
4563,756,
4565,737,
4567,708,
4569,692,
4571,683,
4573,684,
4575,752,
4577,773,
4579,762,
4581,760,
4583,749,
4585,726,
4587,745,
4589,753,
4591,726,
4593,696,
4595,672,
4597,651,
4599,632,
4601,611,
4603,590,
4605,570,
4607,551,
4609,533,
4611,515,
4613,495,
4615,480,
4617,480,
4619,473,
4621,462,
4623,455,
4626,494,
4628,586,
4630,626,
4632,632,
4634,645,
4636,647,
4638,704,
4640,709,
4642,814,
4644,931,
4646,931,
4648,931,
4650,931,
4652,931,
4654,931,
4656,931,
4658,931,
4660,931,
4662,931,
4664,931,
4666,931,
4669,931,
4671,922,
4673,890,
4675,862,
4677,835,
4679,805,
4681,775,
4683,744,
4685,713,
4687,683,
4689,653,
4691,623,
4693,596,
4695,569,
4697,548,
4699,558,
4701,581,
4703,570,
4705,564,
4707,554,
4709,544,
4711,542,
4713,536,
4715,518,
4717,511,
4719,521,
4721,517,
4723,501,
4725,519,
4727,574,
4729,605,
4731,603,
4733,655,
4735,677,
4737,661,
4739,644,
4741,621,
4743,596,
4745,572,
4747,553,
4749,535,
4751,517,
4754,499,
4756,481,
4758,464,
4760,447,
4762,428,
4764,409,
4766,391,
4768,374,
4770,358,
4772,345,
4774,333,
4776,320,
4778,327,
4780,372,
4782,414,
4784,423,
4786,448,
4788,509,
4790,558,
4792,571,
4794,555,
4797,532,
4799,513,
4801,495,
4803,479,
4805,463,
4807,450,
4809,437,
4811,423,
4813,413,
4815,400,
4817,384,
4819,371,
4821,356,
4823,342,
4825,329,
4827,325,
4829,318,
4831,304,
4833,291,
4835,281,
4837,271,
4839,265,
4841,261,
4843,254,
4845,246,
4847,237,
4849,229,
4851,223,
4853,214,
4855,213,
4857,210,
4859,203,
4861,194,
4863,187,
4865,185,
4867,178,
4869,181,
4871,186,
4873,183,
4875,186,
4877,188,
4879,183,
4882,190,
4884,188,
4886,183,
4888,176,
4890,170,
4892,163,
4894,159,
4896,154,
4898,150,
4900,144,
4902,140,
4904,136,
4906,131,
4908,128,
4910,124,
4912,121,
4914,116,
4916,112,
4918,110,
4920,105,
4922,101,
4925,98,
4927,96,
4929,93,
4931,91,
4933,88,
4935,85,
4937,84,
4939,81,
4941,80,
4943,78,
4945,78,
4947,79,
4949,77,
4951,81,
4953,88,
4955,88,
4957,97,
4959,95,
4961,91,
4963,93,
4965,95,
4967,98,
4969,100,
4971,100,
4973,99,
4975,98,
4977,102,
4979,98,
4981,96,
4983,95,
4985,93,
4987,95,
4989,102,
4991,101,
4993,99,
4995,95,
4997,92,
4999,91,
5001,94,
5003,93,
5005,96,
5007,95,
5010,92,
5012,90,
5014,87,
5016,90,
5018,92,
5020,92,
5022,93,
5024,92,
5026,91,
5028,91,
5030,93,
5032,92,
5034,88,
5036,85,
5038,84,
5040,84,
5042,83,
5044,85,
5046,86,
5048,88,
5050,92,
5053,95,
5055,94,
5057,102,
5059,104,
5061,103,
5063,104,
5065,106,
5067,106,
5069,108,
5071,113,
5073,119,
5075,120,
5077,119,
5079,120,
5081,117,
5083,113,
5085,108,
5087,105,
5089,108,
5091,106,
5093,103,
5095,102,
5097,98,
5099,96,
5101,94,
5103,93,
5105,105,
5107,103,
5109,100,
5111,98,
5113,99,
5115,98,
5117,97,
5119,97,
5121,95,
5123,96,
5125,109,
5127,109,
5129,120,
5131,121,
5133,122,
5135,123,
5138,124,
5140,125,
5142,123,
5144,136,
5146,137,
5148,132,
5150,130,
5152,131,
5154,139,
5156,140,
5158,137,
5160,132,
5162,129,
5164,128,
5166,132,
5168,128,
5170,124,
5172,125,
5174,121,
5176,125,
5178,125,
5181,124,
5183,123,
5185,123,
5187,119,
5189,116,
5191,115,
5193,111,
5195,109,
5197,110,
5199,107,
5201,107,
5203,105,
5205,102,
5207,106,
5209,105,
5211,106,
5213,103,
5215,103,
5217,117,
5219,126,
5221,128,
5223,137,
5225,152,
5227,152,
5229,150,
5231,147,
5233,156,
5235,169,
5237,167,
5239,166,
5241,170,
5243,172,
5245,175,
5247,174,
5249,175,
5251,171,
5253,164,
5255,158,
5257,166,
5259,183,
5261,200,
5263,205,
5266,200,
5268,202,
5270,201,
5272,201,
5274,220,
5276,247,
5278,250,
5280,245,
5282,237,
5284,229,
5286,221,
5288,215,
5290,210,
5292,215,
5294,229,
5296,244,
5298,242,
5300,247,
5302,248,
5304,241,
5306,254,
5309,256,
5311,249,
5313,247,
5315,238,
5317,237,
5319,234,
5321,258,
5323,283,
5325,280,
5327,288,
5329,288,
5331,310,
5333,311,
5335,352,
5337,386,
5339,383,
5341,377,
5343,389,
5345,414,
5347,410,
5349,414,
5351,420,
5353,416,
5355,400,
5357,385,
5359,375,
5361,364,
5363,353,
5365,348,
5367,345,
5369,335,
5371,331,
5373,324,
5375,345,
5377,348,
5379,372,
5381,400,
5383,414,
5385,405,
5387,414,
5389,420,
5391,425,
5394,423,
5396,423,
5398,422,
5400,420,
5402,449,
5404,460,
5406,464,
5408,489,
5410,480,
5412,498,
5414,505,
5416,490,
5418,470,
5420,456,
5422,462,
5424,466,
5426,467,
5428,519,
5430,551,
5432,547,
5434,576,
5437,570,
5439,570,
5441,575,
5443,647,
5445,669,
5447,700,
5449,749,
5451,751,
5453,733,
5455,713,
5457,722,
5459,747,
5461,732,
5463,776,
5465,845,
5467,886,
5469,875,
5471,850,
5473,882,
5475,903,
5477,931,
5479,931,
5481,931,
5483,931,
5485,931,
5487,931,
5489,931,
5491,931,
5493,931,
5495,930,
5497,931,
5499,931,
5501,931,
5503,931,
5505,931,
5507,931,
5509,931,
5511,931,
5513,931,
5515,931,
5517,931,
5519,931,
5522,931,
5524,931,
5526,931,
5528,931,
5530,931,
5532,931,
5534,931,
5536,931,
5538,931,
5540,931,
5542,931,
5544,931,
5546,931,
5548,931,
5550,931,
5552,931,
5554,931,
5556,931,
5558,931,
5560,931,
5562,931,
5565,931,
5567,932,
5569,931,
5571,931,
5573,931,
5575,931,
5577,931,
5579,931,
5581,931,
5583,931,
5585,931,
5587,931,
5589,931,
5591,931,
5593,931,
5595,931,
5597,931,
5599,931,
5601,931,
5603,931,
5605,931,
5607,931,
5609,931,
5611,931,
5613,931,
5615,931,
5617,931,
5619,931,
5621,931,
5623,931,
5625,931,
5627,931,
5629,931,
5631,931,
5633,931,
5635,931,
5637,931,
5639,931,
5641,931,
5643,931,
5645,931,
5647,931,
5650,932,
5652,931,
5654,931,
5656,932,
5658,931,
5660,931,
5662,932,
5664,931,
5666,932,
5668,931,
5670,931,
5672,931,
5674,932,
5676,931,
5678,932,
5680,932,
5682,932,
5684,932,
5686,932,
5688,931,
5690,931,
5693,932,
5695,931,
5697,931,
5699,932,
5701,931,
5703,932,
5705,931,
5707,932,
5709,931,
5711,931,
5713,931,
5715,932,
5717,932,
5719,932,
5721,931,
5723,931,
5725,932,
5727,932,
5729,932,
5731,932,
5733,932,
5735,931,
5737,932,
5739,932,
5741,932,
5743,932,
5745,931,
5747,932,
5749,932,
5751,932,
5753,932,
5755,931,
5757,931,
5759,932,
5761,932,
5763,932,
5765,932,
5767,932,
5769,932,
5771,932,
5773,932,
5775,931,
5778,932,
5780,932,
5782,932,
5784,931,
5786,931,
5788,932,
5790,932,
5792,932,
5794,932,
5796,932,
5798,932,
5800,932,
5802,931,
5804,932,
5806,932,
5808,931,
5810,932,
5812,932,
5814,932,
5816,931,
5818,932,
5821,931,
5823,932,
5825,931,
5827,932,
5829,932,
5831,931,
5833,932,
5835,931,
5837,931,
5839,932,
5841,931,
5843,932,
5845,931,
5847,931,
5849,931,
5851,931,
5853,932,
5855,932,
5857,931,
5859,931,
5861,931,
5863,931,
5865,931,
5867,931,
5869,931,
5871,931,
5873,931,
5875,931,
5877,931,
5879,931,
5881,931,
5883,932,
5885,932,
5887,932,
5889,932,
5891,932,
5893,932,
5895,932,
5897,931,
5899,932,
5901,932,
5903,932,
5906,932,
5908,932,
5910,931,
5912,932,
5914,931,
5916,931,
5918,932,
5920,931,
5922,932,
5924,931,
5926,932,
5928,932,
5930,932,
5932,932,
5934,931,
5936,931,
5938,931,
5940,932,
5942,931,
5944,931,
5946,932,
5949,931,
5951,932,
5953,932,
5955,932,
5957,932,
5959,931,
5961,931,
5963,931,
5965,932,
5967,931,
5969,932,
5971,932,
5973,932,
5975,932,
5977,932,
5979,932,
5981,932,
5983,931,
5985,932,
5987,932,
5989,932,
5991,931,
5993,932,
5995,932,
5997,932,
5999,932,
6001,932,
6003,932,
6005,931,
6007,931,
6009,932,
6011,932,
6013,932,
6015,932,
6017,932,
6019,931,
6021,932,
6023,932,
6025,932,
6027,931,
6029,931,
6031,931,
6034,932,
6036,931,
6038,932,
6040,931,
6042,932,
6044,931,
6046,931,
6048,931,
6050,931,
6052,932,
6054,931,
6056,931,
6058,931,
6060,932,
6062,931,
6064,931,
6066,932,
6068,931,
6070,932,
6072,931,
6074,931,
6077,931,
6079,931,
6081,931,
6083,931,
6085,931,
6087,931,
6089,931,
6091,931,
6093,931,
6095,931,
6097,931,
6099,931,
6101,931,
6103,931,
6105,931,
6107,931,
6109,931,
6111,931,
6113,931,
6115,931,
6117,931,
6119,931,
6121,931,
6123,931,
6125,931,
6127,931,
6129,931,
6131,931,
6133,931,
6135,931,
6137,931,
6139,931,
6141,931,
6143,931,
6145,931,
6147,931,
6149,931,
6151,931,
6153,931,
6155,931,
6157,931,
6159,931,
6162,931,
6164,929,
6166,910,
6168,881,
6170,852,
6172,823,
6174,792,
6176,760,
6178,729,
6180,699,
6182,675,
6184,684,
6186,681,
6188,722,
6190,728,
6192,726,
6194,719,
6196,702,
6198,677,
6200,686,
6202,691,
6205,667,
6207,661,
6209,680,
6211,747,
6213,746,
6215,726,
6217,734,
6219,717,
6221,719,
6223,690,
6225,666,
6227,650,
6229,630,
6231,609,
6233,591,
6235,577,
6237,560,
6239,537,
6241,520,
6243,500,
6245,484,
6247,476,
6249,459,
6251,719,
6253,740,
6255,787,
6257,769,
6259,763,
6261,790,
6263,785,
6265,755,
6267,726,
6269,731,
6271,749,
6273,758,
6275,788,
6277,888,
6279,884,
6281,858,
6283,847,
6285,841,
6287,828,
6290,827,
6292,793,
6294,758,
6296,738,
6298,729,
6300,771,
6302,749,
6304,725,
6306,704,
6308,692,
6310,679,
6312,798,
6314,792,
6316,785,
6318,760,
6320,742,
6322,737,
6324,726,
6326,734,
6328,750,
6330,803,
6333,845,
6335,931,
6337,930,
6339,916,
6341,874,
6343,866,
6345,857,
6347,858,
6349,848,
6351,841,
6353,810,
6355,783,
6357,796,
6359,789,
6361,802,
6363,794,
6365,790,
6367,756,
6369,727,
6371,708,
6373,687,
6375,673,
6377,658,
6379,632,
6381,611,
6383,613,
6385,696,
6387,721,
6389,827,
6391,864,
6393,831,
6395,801,
6397,783,
6399,765,
6401,757,
6403,744,
6405,741,
6407,734,
6409,718,
6411,745,
6413,773,
6415,772,
6418,758,
6420,767,
6422,744,
6424,731,
6426,706,
6428,732,
6430,776,
6432,817,
6434,892,
6436,867,
6438,830,
6440,800,
6442,774,
6444,741,
6446,709,
6448,689,
6450,681,
6452,674,
6454,702,
6456,794,
6458,830,
6461,931,
6463,931,
6465,931,
6467,931,
6469,931,
6471,931,
6473,931,
6475,931,
6477,919,
6479,888,
6481,850,
6483,820,
6485,798,
6487,776,
6489,746,
6491,726,
6493,698,
6495,670,
6497,647,
6499,620,
6501,607,
6503,604,
6505,583,
6507,575,
6509,579,
6511,662,
6513,672,
6515,725,
6517,743,
6519,738,
6521,727,
6523,756,
6525,753,
6527,763,
6529,835,
6531,848,
6533,924,
6535,931,
6537,931,
6539,931,
6541,931,
6543,931,
6546,931,
6548,931,
6550,931,
6552,931,
6554,930,
6556,905,
6558,868,
6560,830,
6562,795,
6564,767,
6566,739,
6568,710,
6570,705,
6572,727,
6574,719,
6576,704,
6578,687,
6580,668,
6582,647,
6584,648,
6586,644,
6589,658,
6591,653,
6593,677,
6595,676,
6597,652,
6599,650,
6601,639,
6603,622,
6605,604,
6607,599,
6609,630,
6611,765,
6613,787,
6615,862,
6617,931,
6619,931,
6621,930,
6623,915,
6625,888,
6627,850,
6629,815,
6631,800,
6633,775,
6635,764,
6637,749,
6639,721,
6641,732,
6643,798,
6645,792,
6647,831,
6649,865,
6651,842,
6653,814,
6655,800,
6657,774,
6659,753,
6661,757,
6663,733,
6665,721,
6667,710,
6669,725,
6671,754,
6674,732,
6676,746,
6678,751,
6680,766,
6682,779,
6684,768,
6686,809,
6688,821,
6690,789,
6692,774,
6694,836,
6696,847,
6698,866,
6700,931,
6702,931,
6704,930,
6706,897,
6708,866,
6710,837,
6712,811,
6714,785,
6717,764,
6719,749,
6721,747,
6723,759,
6725,748,
6727,736,
6729,753,
6731,742,
6733,713,
6735,688,
6737,665,
6739,662,
6741,699,
6743,699,
6745,701,
6747,718,
6749,729,
6751,743,
6753,742,
6755,809,
6757,858,
6759,860,
6761,851,
6763,828,
6765,801,
6767,780,
6769,757,
6771,735,
6773,717,
6775,706,
6777,694,
6779,678,
6781,651,
6783,622,
6785,598,
6787,581,
6789,561,
6791,538,
6793,527,
6795,682,
6797,680,
6799,656,
6802,641,
6804,615,
6806,606,
6808,645,
6810,699,
6812,725,
6814,714,
6816,686,
6818,659,
6820,635,
6822,616,
6824,600,
6826,585,
6828,580,
6830,578,
6832,567,
6834,548,
6836,530,
6838,518,
6840,530,
6842,547,
6845,537,
6847,513,
6849,490,
6851,473,
6853,466,
6855,476,
6857,485,
6859,473,
6861,469,
6863,470,
6865,460,
6867,449,
6869,450,
6871,443,
6873,426,
6875,454,
6877,550,
6879,596,
6881,642,
6883,780,
6885,872,
6887,881,
6889,864,
6891,829,
6893,799,
6895,779,
6897,762,
6899,745,
6901,727,
6903,707,
6905,685,
6907,662,
6909,637,
6911,612,
6913,586,
6915,560,
6917,535,
6919,511,
6921,489,
6923,467,
6925,447,
6927,427,
6930,408,
6932,390,
6934,373,
6936,359,
6938,345,
6940,334,
6942,338,
6944,335,
6946,328,
6948,339,
6950,345,
6952,338,
6954,325,
6956,318,
6958,314,
6960,303,
6962,299,
6964,294,
6966,305,
6968,304,
6970,298,
6973,308,
6975,309,
6977,299,
6979,292,
6981,285,
6983,273,
6985,266,
6987,256,
6989,247,
6991,238,
6993,231,
6995,222,
6997,213,
6999,204,
7001,195,
7003,187,
7005,179,
7007,173,
7009,166,
7011,160,
7013,154,
7015,151,
7017,145,
7019,140,
7021,134,
7023,128,
7025,124,
7027,119,
7029,115,
7031,112,
7033,109,
7035,105,
7037,103,
7039,99,
7041,97,
7043,94,
7045,91,
7047,88,
7049,85,
7051,86,
7053,86,
7055,85,
7058,84,
7060,82,
7062,80,
7064,80,
7066,79,
7068,79,
7070,77,
7072,76,
7074,74,
7076,72,
7078,71,
7080,69,
7082,67,
7084,65,
7086,64,
7088,62,
7090,63,
7092,62,
7094,61,
7096,60,
7098,59,
7101,59,
7103,57,
7105,55,
7107,56,
7109,58,
7111,57,
7113,55,
7115,62,
7117,70,
7119,69,
7121,71,
7123,69,
7125,68,
7127,71,
7129,72,
7131,76,
7133,78,
7135,80,
7137,86,
7139,88,
7141,86,
7143,89,
7145,87,
7147,84,
7149,81,
7151,82,
7153,82,
7155,81,
7157,83,
7159,80,
7161,79,
7163,85,
7165,87,
7167,87,
7169,87,
7171,97,
7173,100,
7175,107,
7177,114,
7179,114,
7181,112,
7183,111,
7186,111,
7188,111,
7190,110,
7192,117,
7194,116,
7196,122,
7198,126,
7200,129,
7202,144,
7204,143,
7206,151,
7208,149,
7210,155,
7212,164,
7214,166,
7216,164,
7218,163,
7220,171,
7222,168,
7224,165,
7226,162,
7229,161,
7231,156,
7233,151,
7235,148,
7237,144,
7239,144,
7241,143,
7243,145,
7245,148,
7247,157,
7249,334,
7251,360,
7253,373,
7255,393,
7257,398,
7259,395,
7261,381,
7263,378,
7265,379,
7267,365,
7269,352,
7271,345,
7273,337,
7275,337,
7277,334,
7279,327,
7281,331,
7283,337,
7285,329,
7287,333,
7289,335,
7291,333,
7293,334,
7295,339,
7297,329,
7299,315,
7301,304,
7303,302,
7305,296,
7307,295,
7309,293,
7311,295,
7314,283,
7316,279,
7318,269,
7320,265,
7322,263,
7324,258,
7326,248,
7328,242,
7330,237,
7332,242,
7334,235,
7336,226,
7338,224,
7340,216,
7342,209,
7344,204,
7346,203,
7348,197,
7350,190,
7352,183,
7354,176,
7357,172,
7359,187,
7361,192,
7363,200,
7365,197,
7367,201,
7369,198,
7371,207,
7373,201,
7375,203,
7377,233,
7379,243,
7381,251,
7383,242,
7385,234,
7387,226,
7389,227,
7391,223,
7393,216,
7395,215,
7397,207,
7399,202,
7401,205,
7403,202,
7405,213,
7407,214,
7409,206,
7411,206,
7413,214,
7415,208,
7417,200,
7419,204,
7421,207,
7423,201,
7425,194,
7427,187,
7429,183,
7431,180,
7433,181,
7435,179,
7437,178,
7439,178,
7442,178,
7444,173,
7446,167,
7448,169,
7450,171,
7452,166,
7454,159,
7456,156,
7458,151,
7460,145,
7462,139,
7464,133,
7466,129,
7468,124,
7470,125,
7472,124,
7474,122,
7476,120,
7478,116,
7480,111,
7482,107,
7485,107,
7487,118,
7489,139,
7491,152,
7493,155,
7495,184,
7497,210,
7499,212,
7501,205,
7503,205,
7505,209,
7507,215,
7509,221,
7511,216,
7513,208,
7515,201,
7517,198,
7519,197,
7521,193,
7523,189,
7525,194,
7527,199,
7529,203,
7531,209,
7533,243,
7535,254,
7537,250,
7539,244,
7541,259,
7543,304,
7545,349,
7547,353,
7549,389,
7551,450,
7553,482,
7555,478,
7557,461,
7559,443,
7561,427,
7563,421,
7565,421,
7567,408,
7570,397,
7572,386,
7574,387,
7576,386,
7578,393,
7580,397,
7582,427,
7584,450,
7586,444,
7588,483,
7590,564,
7592,605,
7594,595,
7596,612,
7598,623,
7600,608,
7602,602,
7604,598,
7606,574,
7608,558,
7610,539,
7613,520,
7615,524,
7617,535,
7619,562,
7621,583,
7623,579,
7625,648,
7627,721,
7629,745,
7631,742,
7633,718,
7635,709,
7637,743,
7639,797,
7641,811,
7643,788,
7645,773,
7647,754,
7649,758,
7651,821,
7653,885,
7655,894,
7657,871,
7659,880,
7661,890,
7663,893,
7665,884,
7667,875,
7669,848,
7671,842,
7673,813,
7675,807,
7677,812,
7679,796,
7681,810,
7683,864,
7685,882,
7687,863,
7689,835,
7691,830,
7693,847,
7695,833,
7698,827,
7700,828,
7702,803,
7704,781,
7706,752,
7708,734,
7710,734,
7712,708,
7714,716,
7716,744,
7718,761,
7720,750,
7722,781,
7724,836,
7726,848,
7728,844,
7730,866,
7732,872,
7734,848,
7736,823,
7738,817,
7741,853,
7743,931,
7745,931,
7747,931,
7749,931,
7751,931,
7753,931,
7755,931,
7757,931,
7759,931,
7761,931,
7763,931,
7765,931,
7767,931,
7769,931,
7771,931,
7773,931,
7775,931,
7777,931,
7779,931,
7781,931,
7783,931,
7785,931,
7787,931,
7789,931,
7791,931,
7793,931,
7795,931,
7797,931,
7799,931,
7801,931,
7803,931,
7805,931,
7807,931,
7809,931,
7811,931,
7813,931,
7815,931,
7817,931,
7819,931,
7821,931,
7823,931,
7826,931,
7828,931,
7830,931,
7832,931,
7834,931,
7836,931,
7838,931,
7840,931,
7842,931,
7844,931,
7846,931,
7848,931,
7850,931,
7852,931,
7854,931,
7856,931,
7858,932,
7860,931,
7862,931,
7864,931,
7866,932,
7869,932,
7871,932,
7873,931,
7875,931,
7877,932,
7879,931,
7881,931,
7883,932,
7885,932,
7887,932,
7889,931,
7891,932,
7893,931,
7895,931,
7897,932,
7899,932,
7901,931,
7903,932,
7905,932,
7907,932,
7909,931,
7911,931,
7913,932,
7915,932,
7917,931,
7919,931,
7921,931,
7923,931,
7925,932,
7927,931,
7929,931,
7931,931,
7933,931,
7935,931,
7937,932,
7939,931,
7941,931,
7943,931,
7945,931,
7947,931,
7949,931,
7951,931,
7954,932,
7956,931,
7958,932,
7960,931,
7962,931,
7964,932,
7966,931,
7968,932,
7970,931,
7972,932,
7974,931,
7976,931,
7978,931,
7980,931,
7982,932,
7984,931,
7986,932,
7988,932,
7990,932,
7992,931,
7994,932,
7997,932,
7999,931,
8001,931,
8003,932,
8005,931,
8007,932,
8009,932,
8011,931,
8013,932,
8015,931,
8017,931,
8019,932,
8021,932,
8023,932,
8025,932,
8027,932,
8029,932,
8031,932,
8033,931,
8035,932,
8037,932,
8039,931,
8041,931,
8043,932,
8045,932,
8047,932,
8049,932,
8051,931,
8053,931,
8055,931,
8057,932,
8059,932,
8061,932,
8063,931,
8065,932,
8067,931,
8069,932,
8071,931,
8073,932,
8075,932,
8077,932,
8079,931,
8082,932,
8084,932,
8086,932,
8088,932,
8090,932,
8092,932,
8094,932,
8096,931,
8098,932,
8100,932,
8102,932,
8104,932,
8106,931,
8108,932,
8110,932,
8112,932,
8114,931,
8116,932,
8118,932,
8120,931,
8122,932,
8125,931,
8127,931,
8129,932,
8131,932,
8133,932,
8135,932,
8137,932,
8139,932,
8141,932,
8143,931,
8145,932,
8147,931,
8149,932,
8151,931,
8153,931,
8155,931,
8157,931,
8159,931,
8161,931,
8163,932,
8165,931,
8167,931,
8169,931,
8171,931,
8173,932,
8175,931,
8177,931,
8179,932,
8181,931,
8183,932,
8185,932,
8187,932,
8189,931,
8191,932,
8193,932,
8195,932,
8197,931,
8199,932,
8201,932,
8203,931,
8205,932,
8207,932,
8210,932,
8212,932,
8214,932,
8216,931,
8218,932,
8220,932,
8222,932,
8224,932,
8226,931,
8228,932,
8230,932,
8232,931,
8234,931,
8236,932,
8238,932,
8240,931,
8242,931,
8244,931,
8246,931,
8248,931,
8250,931,
8253,931,
8255,931,
8257,932,
8259,931,
8261,931,
8263,931,
8265,932,
8267,931,
8269,932,
8271,931,
8273,932,
8275,931,
8277,932,
8279,931,
8281,931,
8283,932,
8285,931,
8287,931,
8289,932,
8291,932,
8293,932,
8295,931,
8297,932,
8299,932,
8301,931,
8303,931,
8305,931,
8307,931,
8309,932,
8311,931,
8313,931,
8315,931,
8317,931,
8319,931,
8321,931,
8323,931,
8325,931,
8327,931,
8329,931,
8331,931,
8333,931,
8335,931,
8338,931,
8340,931,
8342,931,
8344,931,
8346,931,
8348,931,
8350,931,
8352,931,
8354,931,
8356,931,
8358,931,
8360,931,
8362,930,
8364,892,
8366,867,
8368,834,
8370,807,
8372,786,
8374,761,
8376,749,
8378,720,
8381,700,
8383,695,
8385,677,
8387,665,
8389,671,
8391,683,
8393,684,
8395,722,
8397,716,
8399,722,
8401,706,
8403,685,
8405,675,
8407,685,
8409,721,
8411,745,
8413,772,
8415,755,
8417,751,
8419,726,
8421,722,
8423,714,
8425,689,
8427,660,
8429,634,
8431,608,
8433,589,
8435,575,
8437,553,
8439,687,
8441,691,
8443,690,
8445,683,
8447,664,
8449,651,
8451,624,
8453,618,
8455,637,
8457,661,
8459,705,
8461,714,
8463,711,
8466,700,
8468,675,
8470,657,
8472,634,
8474,631,
8476,622,
8478,630,
8480,628,
8482,636,
8484,634,
8486,621,
8488,600,
8490,589,
8492,632,
8494,629,
8496,660,
8498,687,
8500,680,
8502,692,
8504,673,
8506,874,
8509,896,
8511,864,
8513,847,
8515,882,
8517,860,
8519,838,
8521,879,
8523,905,
8525,930,
8527,931,
8529,930,
8531,923,
8533,902,
8535,899,
8537,911,
8539,930,
8541,930,
8543,930,
8545,931,
8547,931,
8549,931,
8551,930,
8553,905,
8555,880,
8557,850,
8559,816,
8561,786,
8563,778,
8565,797,
8567,792,
8569,818,
8571,931,
8573,931,
8575,931,
8577,931,
8579,931,
8581,931,
8583,931,
8585,931,
8587,930,
8589,909,
8591,876,
8594,860,
8596,866,
8598,884,
8600,888,
8602,887,
8604,931,
8606,931,
8608,931,
8610,931,
8612,931,
8614,930,
8616,920,
8618,906,
8620,927,
8622,925,
8624,910,
8626,913,
8628,895,
8630,874,
8632,879,
8634,860,
8637,931,
8639,931,
8641,931,
8643,931,
8645,914,
8647,902,
8649,887,
8651,858,
8653,847,
8655,894,
8657,930,
8659,925,
8661,931,
8663,929,
8665,929,
8667,907,
8669,887,
8671,921,
8673,931,
8675,931,
8677,931,
8679,931,
8681,931,
8683,931,
8685,931,
8687,931,
8689,931,
8691,931,
8693,926,
8695,904,
8697,870,
8699,840,
8701,813,
8703,783,
8705,756,
8707,723,
8709,697,
8711,691,
8713,667,
8715,685,
8717,688,
8719,677,
8722,669,
8724,667,
8726,706,
8728,712,
8730,694,
8732,669,
8734,732,
8736,912,
8738,929,
8740,931,
8742,931,
8744,931,
8746,931,
8748,931,
8750,931,
8752,931,
8754,931,
8756,931,
8758,926,
8760,885,
8762,851,
8765,820,
8767,803,
8769,788,
8771,831,
8773,859,
8775,866,
8777,930,
8779,931,
8781,913,
8783,894,
8785,931,
8787,931,
8789,931,
8791,931,
8793,931,
8795,931,
8797,931,
8799,931,
8801,931,
8803,931,
8805,931,
8807,931,
8809,931,
8811,931,
8813,931,
8815,931,
8817,931,
8819,931,
8821,931,
8823,931,
8825,931,
8827,931,
8829,931,
8831,931,
8833,931,
8835,931,
8837,931,
8839,931,
8841,930,
8843,895,
8845,857,
8847,820,
8850,791,
8852,777,
8854,758,
8856,727,
8858,697,
8860,708,
8862,734,
8864,714,
8866,739,
8868,776,
8870,766,
8872,753,
8874,743,
8876,737,
8878,777,
8880,769,
8882,838,
8884,930,
8886,929,
8888,912,
8890,883,
8893,867,
8895,836,
8897,816,
8899,788,
8901,760,
8903,734,
8905,714,
8907,699,
8909,680,
8911,652,
8913,626,
8915,599,
8917,575,
8919,551,
8921,527,
8923,509,
8925,505,
8927,509,
8929,518,
8931,528,
8933,526,
8935,518,
8937,527,
8939,521,
8941,543,
8943,560,
8945,593,
8947,669,
8949,704,
8951,712,
8953,683,
8955,663,
8957,637,
8959,643,
8961,759,
8963,868,
8965,874,
8967,931,
8969,931,
8971,931,
8973,931,
8975,931,
8978,931,
8980,928,
8982,890,
8984,861,
8986,837,
8988,813,
8990,789,
8992,765,
8994,739,
8996,712,
8998,685,
9000,656,
9002,630,
9004,604,
9006,580,
9008,557,
9010,534,
9012,513,
9014,496,
9016,486,
9018,476,
9021,458,
9023,448,
9025,478,
9027,497,
9029,489,
9031,498,
9033,530,
9035,586,
9037,637,
9039,629,
9041,615,
9043,615,
9045,623,
9047,631,
9049,620,
9051,598,
9053,599,
9055,607,
9057,593,
9059,598,
9061,607,
9063,601,
9065,590,
9067,599,
9069,590,
9071,570,
9073,545,
9075,523,
9077,504,
9079,490,
9081,480,
9083,467,
9085,448,
9087,434,
9089,424,
9091,408,
9093,391,
9095,376,
9097,361,
9099,346,
9101,331,
9103,317,
9106,303,
9108,291,
9110,288,
9112,295,
9114,296,
9116,291,
9118,305,
9120,312,
9122,304,
9124,292,
9126,279,
9128,268,
9130,258,
9132,249,
9134,239,
9136,230,
9138,220,
9140,212,
9142,204,
9144,197,
9146,189,
9149,182,
9151,174,
9153,167,
9155,160,
9157,153,
9159,148,
9161,142,
9163,136,
9165,131,
9167,128,
9169,125,
9171,120,
9173,115,
9175,111,
9177,107,
9179,103,
9181,100,
9183,97,
9185,96,
9187,94,
9189,92,
9191,91,
9193,90,
9195,88,
9197,85,
9199,83,
9201,82,
9203,82,
9205,79,
9207,79,
9209,79,
9211,77,
9213,77,
9215,79,
9217,78,
9219,78,
9221,75,
9223,74,
9225,75,
9227,76,
9229,75,
9231,74,
9234,72,
9236,78,
9238,85,
9240,83,
9242,85,
9244,91,
9246,91,
9248,89,
9250,96,
9252,97,
9254,108,
9256,111,
9258,116,
9260,118,
9262,125,
9264,129,
9266,133,
9268,130,
9270,128,
9272,136,
9274,136,
9277,138,
9279,137,
9281,135,
9283,135,
9285,131,
9287,126,
9289,123,
9291,122,
9293,121,
9295,120,
9297,124,
9299,125,
9301,123,
9303,121,
9305,118,
9307,114,
9309,113,
9311,121,
9313,119,
9315,120,
9317,122,
9319,122,
9321,123,
9323,123,
9325,124,
9327,123,
9329,126,
9331,131,
9333,128,
9335,126,
9337,129,
9339,130,
9341,129,
9343,130,
9345,138,
9347,137,
9349,139,
9351,138,
9353,133,
9355,134,
9357,141,
9359,140,
9362,137,
9364,133,
9366,130,
9368,130,
9370,140,
9372,140,
9374,135,
9376,132,
9378,130,
9380,132,
9382,148,
9384,144,
9386,146,
9388,146,
9390,148,
9392,151,
9394,158,
9396,159,
9398,170,
9400,181,
9402,202,
9405,213,
9407,206,
9409,200,
9411,193,
9413,186,
9415,180,
9417,187,
9419,186,
9421,192,
9423,194,
9425,194,
9427,192,
9429,188,
9431,181,
9433,178,
9435,195,
9437,197,
9439,204,
9441,203,
9443,196,
9445,194,
9447,192,
9449,188,
9451,188,
9453,182,
9455,174,
9457,172,
9459,170,
9461,168,
9463,172,
9465,171,
9467,172,
9469,183,
9471,178,
9473,175,
9475,170,
9477,172,
9479,169,
9481,164,
9483,159,
9485,153,
9487,151,
9490,155,
9492,155,
9494,159,
9496,154,
9498,154,
9500,153,
9502,153,
9504,151,
9506,152,
9508,146,
9510,141,
9512,142,
9514,142,
9516,138,
9518,135,
9520,132,
9522,136,
9524,140,
9526,139,
9528,141,
9530,147,
9533,155,
9535,160,
9537,169,
9539,175,
9541,172,
9543,175,
9545,169,
9547,170,
9549,173,
9551,176,
9553,174,
9555,167,
9557,168,
9559,164,
9561,160,
9563,155,
9565,149,
9567,144,
9569,138,
9571,132,
9573,130,
9575,132,
9577,143,
9579,154,
9581,157,
9583,152,
9585,159,
9587,174,
9589,190,
9591,194,
9593,196,
9595,212,
9597,218,
9599,217,
9601,232,
9603,243,
9605,238,
9607,245,
9609,262,
9611,282,
9613,280,
9615,304,
9618,340,
9620,348,
9622,337,
9624,323,
9626,313,
9628,306,
9630,310,
9632,327,
9634,342,
9636,336,
9638,349,
9640,352,
9642,338,
9644,326,
9646,315,
9648,307,
9650,320,
9652,352,
9654,383,
9656,382,
9658,410,
9661,426,
9663,436,
9665,469,
9667,468,
9669,522,
9671,570,
9673,560,
9675,559,
9677,542,
9679,525,
9681,505,
9683,490,
9685,484,
9687,493,
9689,499,
9691,493,
9693,497,
9695,532,
9697,562,
9699,568,
9701,551,
9703,548,
9705,546,
9707,534,
9709,525,
9711,537,
9713,586,
9715,612,
9717,596,
9719,608,
9721,612,
9723,591,
9725,575,
9727,609,
9729,655,
9731,650,
9733,659,
9735,680,
9737,680,
9739,657,
9741,666,
9743,671,
9746,675,
9748,704,
9750,693,
9752,715,
9754,782,
9756,802,
9758,778,
9760,770,
9762,757,
9764,771,
9766,847,
9768,921,
9770,925,
9772,931,
9774,931,
9776,931,
9778,931,
9780,931,
9782,931,
9784,931,
9786,931,
9789,931,
9791,931,
9793,931,
9795,931,
9797,931,
9799,931,
9801,931,
9803,931,
9805,931,
9807,931,
9809,931,
9811,931,
9813,931,
9815,931,
9817,931,
9819,931,
9821,931,
9823,931,
9825,931,
9827,931,
9829,931,
9831,931,
9833,931,
9835,931,
9837,931,
9839,931,
9841,931,
9843,931,
9845,931,
9847,931,
9849,931,
9851,931,
9853,931,
9855,931,
9857,931,
9859,931,
9861,931,
9863,931,
9865,931,
9867,931,
9869,931,
9871,931,
9874,931,
9876,931,
9878,931,
9880,931,
9882,931,
9884,931,
9886,931,
9888,931,
9890,931,
9892,931,
9894,931,
9896,931,
9898,931,
9900,931,
9902,931,
9904,931,
9906,931,
9908,932,
9910,931,
9912,931,
9914,931,
9917,931,
9919,932,
9921,932,
9923,931,
9925,932,
9927,931,
9929,931,
9931,932,
9933,931,
9935,932,
9937,931,
9939,932,
9941,931,
9943,931,
9945,932,
9947,931,
9949,931,
9951,932,
9953,931,
9955,931,
9957,931,
9959,931,
9961,931,
9963,931,
9965,932,
9967,931,
9969,931,
9971,931,
9973,931,
9975,931,
9977,932,
9979,932,
9981,932,
9983,931,
9985,931,
9987,931,
9989,931,
9991,931,
9993,931,
9995,931,
9997,931,
9999,931,
10002,931,
10004,931,
10006,931,
10008,931,
10010,931,
10012,931,
10014,931,
10016,931,
10018,931,
10020,931,
10022,931,
10024,932,
10026,931,
10028,931,
10030,932,
10032,932,
10034,931,
10036,932,
10038,932,
10040,932,
10042,932,
10045,932,
10047,932,
10049,931,
10051,932,
10053,931,
10055,932,
10057,932,
10059,932,
10061,931,
10063,932,
10065,932,
10067,932,
10069,932,
10071,932,
10073,932,
10075,932,
10077,932,
10079,932,
10081,932,
10083,932,
10085,932,
10087,932,
10089,932,
10091,932,
10093,931,
10095,932,
10097,932,
10099,932,
10101,931,
10103,932,
10105,932,
10107,931,
10109,932,
10111,931,
10113,932,
10115,932,
10117,932,
10119,931,
10121,932,
10123,932,
10125,931,
10127,931,
10130,932,
10132,932,
10134,932,
10136,932,
10138,932,
10140,932,
10142,932,
10144,932,
10146,931,
10148,931,
10150,932,
10152,932,
10154,932,
10156,932,
10158,932,
10160,932,
10162,932,
10164,932,
10166,931,
10168,932,
10170,932,
10173,931,
10175,932,
10177,932,
10179,931,
10181,932,
10183,932,
10185,932,
10187,932,
10189,931,
10191,932,
10193,932,
10195,931,
10197,932,
10199,932,
10201,932,
10203,931,
10205,931,
10207,931,
10209,932,
10211,932,
10213,932,
10215,932,
10217,932,
10219,932,
10221,932,
10223,932,
10225,932,
10227,932,
10229,932,
10231,932,
10233,932,
10235,932,
10237,932,
10239,932,
10241,931,
10243,931,
10245,932,
10247,932,
10249,932,
10251,932,
10253,932,
10255,932,
10258,932,
10260,932,
10262,932,
10264,932,
10266,932,
10268,932,
10270,932,
10272,931,
10274,932,
10276,932,
10278,931,
10280,932,
10282,932,
10284,932,
10286,931,
10288,932,
10290,932,
10292,932,
10294,932,
10296,932,
10298,931,
10301,932,
10303,932,
10305,931,
10307,932,
10309,932,
10311,932,
10313,932,
10315,932,
10317,931,
10319,932,
10321,932,
10323,931,
10325,932,
10327,931,
10329,932,
10331,932,
10333,932,
10335,932,
10337,932,
10339,932,
10341,932,
10343,932,
10345,932,
10347,932,
10349,932,
10351,931,
10353,932,
10355,932,
10357,931,
10359,931,
10361,931,
10363,931,
10365,931,
10367,931,
10369,931,
10371,931,
10373,931,
10375,931,
10377,931,
10379,931,
10381,931,
10383,931,
10386,931,
10388,931,
10390,931,
10392,931,
10394,931,
10396,931,
10398,931,
10400,931,
10402,931,
10404,931,
10406,931,
10408,931,
10410,931,
10412,930,
10414,909,
10416,923,
10418,900,
10420,914,
10422,903,
10424,876,
10426,857,
10429,828,
10431,810,
10433,776,
10435,744,
10437,713,
10439,692,
10441,706,
10443,755,
10445,772,
10447,825,
10449,874,
10451,838,
10453,814,
10455,805,
10457,841,
10459,808,
10461,834,
10463,848,
10465,856,
10467,853,
10469,822,
10471,808,
10473,816,
10475,828,
10477,845,
10479,867,
10481,839,
10483,827,
10485,828,
10487,799,
10489,786,
10491,898,
10493,919,
10495,931,
10497,931,
10499,931,
10501,931,
10503,931,
10505,931,
10507,930,
10509,896,
10511,859,
10514,856,
10516,834,
10518,840,
10520,849,
10522,857,
10524,850,
10526,881,
10528,906,
10530,907,
10532,889,
10534,855,
10536,842,
10538,830,
10540,850,
10542,878,
10544,931,
10546,931,
10548,931,
10550,931,
10552,931,
10554,931,
10557,930,
10559,920,
10561,882,
10563,855,
10565,829,
10567,821,
10569,931,
10571,931,
10573,931,
10575,931,
10577,931,
10579,931,
10581,931,
10583,931,
10585,931,
10587,931,
10589,931,
10591,931,
10593,931,
10595,931,
10597,931,
10599,931,
10601,931,
10603,931,
10605,931,
10607,931,
10609,931,
10611,931,
10613,931,
10615,931,
10617,931,
10619,931,
10621,931,
10623,931,
10625,931,
10627,930,
10629,931,
10631,931,
10633,931,
10635,931,
10637,931,
10639,931,
10642,931,
10644,931,
10646,931,
10648,931,
10650,931,
10652,931,
10654,931,
10656,909,
10658,878,
10660,887,
10662,931,
10664,931,
10666,931,
10668,931,
10670,931,
10672,931,
10674,931,
10676,931,
10678,931,
10680,931,
10682,931,
10685,931,
10687,931,
10689,931,
10691,931,
10693,931,
10695,931,
10697,931,
10699,931,
10701,931,
10703,931,
10705,931,
10707,931,
10709,931,
10711,931,
10713,931,
10715,931,
10717,931,
10719,931,
10721,931,
10723,931,
10725,931,
10727,931,
10729,931,
10731,931,
10733,931,
10735,931,
10737,931,
10739,929,
10741,888,
10743,901,
10745,922,
10747,898,
10749,897,
10751,905,
10753,903,
10755,873,
10757,839,
10759,813,
10761,783,
10763,754,
10765,775,
10767,761,
10770,761,
10772,781,
10774,780,
10776,823,
10778,837,
10780,832,
10782,870,
10784,875,
10786,837,
10788,842,
10790,832,
10792,808,
10794,815,
10796,804,
10798,783,
10800,775,
10802,770,
10804,756,
10806,783,
10808,793,
10810,783,
10813,781,
10815,773,
10817,753,
10819,748,
10821,748,
10823,754,
10825,728,
10827,705,
10829,712,
10831,695,
10833,668,
10835,650,
10837,638,
10839,625,
10841,604,
10843,581,
10845,558,
10847,562,
10849,613,
10851,609,
10853,668,
10855,698,
10857,693,
10859,672,
10861,646,
10863,629,
10865,616,
10867,603,
10869,587,
10871,563,
10873,538,
10875,537,
10877,524,
10879,548,
10881,608,
10883,604,
10885,655,
10887,681,
10889,663,
10891,652,
10893,695,
10895,689,
10898,761,
10900,824,
10902,803,
10904,795,
10906,792,
10908,797,
10910,779,
10912,760,
10914,748,
10916,791,
10918,816,
10920,845,
10922,922,
10924,924,
10926,899,
10928,875,
10930,842,
10932,809,
10934,778,
10936,744,
10938,713,
10941,688,
10943,676,
10945,663,
10947,648,
10949,623,
10951,599,
10953,586,
10955,567,
10957,576,
10959,648,
10961,706,
10963,718,
10965,841,
10967,924,
10969,904,
10971,868,
10973,832,
10975,802,
10977,774,
10979,751,
10981,733,
10983,731,
10985,735,
10987,735,
10989,709,
10991,696,
10993,680,
10995,652,
10997,624,
10999,627,
11001,666,
11003,663,
11005,665,
11007,689,
11009,679,
11011,649,
11013,623,
11015,603,
11017,582,
11019,579,
11021,662,
11023,749,
11026,749,
11028,808,
11030,883,
11032,894,
11034,887,
11036,880,
11038,848,
11040,811,
11042,802,
11044,819,
11046,800,
11048,817,
11050,864,
11052,920,
11054,931,
11056,910,
11058,882,
11060,856,
11062,832,
11064,817,
11066,805,
11069,786,
11071,755,
11073,722,
11075,690,
11077,663,
11079,637,
11081,612,
11083,587,
11085,563,
11087,539,
11089,517,
11091,496,
11093,485,
11095,478,
11097,463,
11099,443,
11101,425,
11103,412,
11105,426,
11107,468,
11109,475,
11111,470,
11113,499,
11115,516,
11117,496,
11119,488,
11121,494,
11123,509,
11125,517,
11127,512,
11129,492,
11131,485,
11133,505,
11135,520,
11137,507,
11139,519,
11141,516,
11143,501,
11145,485,
11147,478,
11149,479,
11151,466,
11154,449,
11156,435,
11158,422,
11160,410,
11162,397,
11164,384,
11166,371,
11168,360,
11170,357,
11172,370,
11174,369,
11176,366,
11178,383,
11180,390,
11182,383,
11184,430,
11186,489,
11188,501,
11190,513,
11192,553,
11194,566,
11197,553,
11199,557,
11201,544,
11203,580,
11205,634,
11207,637,
11209,614,
11211,594,
11213,578,
11215,566,
11217,554,
11219,540,
11221,525,
11223,507,
11225,492,
11227,484,
11229,481,
11231,477,
11233,460,
11235,459,
11237,467,
11239,468,
11241,460,
11243,442,
11245,424,
11247,408,
11249,392,
11251,377,
11253,362,
11255,347,
11257,332,
11259,318,
11261,304,
11263,292,
11265,285,
11267,279,
11269,268,
11271,263,
11273,260,
11275,253,
11277,251,
11279,269,
11282,292,
11284,291,
11286,304,
11288,327,
11290,335,
11292,342,
11294,336,
11296,322,
11298,310,
11300,300,
11302,291,
11304,281,
11306,272,
11308,263,
11310,253,
11312,242,
11314,232,
11316,222,
11318,212,
11320,203,
11322,195,
11325,188,
11327,182,
11329,174,
11331,168,
11333,165,
11335,161,
11337,155,
11339,151,
11341,145,
11343,139,
11345,134,
11347,128,
11349,124,
11351,120,
11353,117,
11355,112,
11357,111,
11359,110,
11361,108,
11363,111,
11365,107,
11367,105,
11369,101,
11371,97,
11373,94,
11375,90,
11377,87,
11379,84,
11381,83,
11383,82,
11385,81,
11387,83,
11389,81,
11391,80,
11393,78,
11395,76,
11397,73,
11399,72,
11401,70,
11403,67,
11405,70,
11407,70,
11410,69,
11412,68,
11414,66,
11416,64,
11418,62,
11420,64,
11422,67,
11424,65,
11426,67,
11428,65,
11430,65,
11432,66,
11434,65,
11436,66,
11438,71,
11440,75,
11442,77,
11444,75,
11446,74,
11448,72,
11450,71,
11453,70,
11455,68,
11457,69,
11459,68,
11461,66,
11463,65,
11465,63,
11467,61,
11469,59,
11471,59,
11473,58,
11475,57,
11477,59,
11479,60,
11481,58,
11483,59,
11485,57,
11487,56,
11489,54,
11491,52,
11493,52,
11495,51,
11497,51,
11499,51,
11501,50,
11503,49,
11505,50,
11507,51,
11509,51,
11511,51,
11513,53,
11515,54,
11517,56,
11519,57,
11521,63,
11523,64,
11525,64,
11527,64,
11529,61,
11531,62,
11533,75,
11535,77,
11538,79,
11540,80,
11542,84,
11544,91,
11546,89,
11548,87,
11550,87,
11552,87,
11554,88,
11556,88,
11558,89,
11560,90,
11562,90,
11564,94,
11566,95,
11568,94,
11570,92,
11572,91,
11574,95,
11576,95,
11578,94,
11581,90,
11583,91,
11585,89,
11587,96,
11589,101,
11591,108,
11593,108,
11595,104,
11597,103,
11599,106,
11601,110,
11603,106,
11605,105,
11607,105,
11609,106,
11611,102,
11613,104,
11615,111,
11617,109,
11619,109,
11621,109,
11623,107,
11625,107,
11627,104,
11629,105,
11631,109,
11633,120,
11635,123,
11637,135,
11639,135,
11641,135,
11643,133,
11645,136,
11647,137,
11649,140,
11651,139,
11653,143,
11655,137,
11657,134,
11659,144,
11661,140,
11663,148,
11666,148,
11668,147,
11670,156,
11672,161,
11674,167,
11676,165,
11678,158,
11680,153,
11682,149,
11684,146,
11686,142,
11688,140,
11690,138,
11692,136,
11694,130,
11696,126,
11698,126,
11700,136,
11702,145,
11704,158,
11706,161,
11709,161,
11711,175,
11713,172,
11715,170,
11717,166,
11719,166,
11721,162,
11723,161,
11725,157,
11727,152,
11729,151,
11731,151,
11733,149,
11735,153,
11737,157,
11739,167,
11741,172,
11743,181,
11745,186,
11747,181,
11749,177,
11751,176,
11753,170,
11755,173,
11757,167,
11759,163,
11761,166,
11763,166,
11765,167,
11767,172,
11769,169,
11771,167,
11773,163,
11775,157,
11777,151,
11779,150,
11781,146,
11783,154,
11785,153,
11787,148,
11789,142,
11791,137,
11794,134,
11796,132,
11798,132,
11800,129,
11802,132,
11804,135,
11806,129,
11808,127,
11810,124,
11812,120,
11814,115,
11816,111,
11818,109,
11820,111,
11822,117,
11824,121,
11826,119,
11828,121,
11830,119,
11832,117,
11834,113,
11837,112,
11839,119,
11841,127,
11843,130,
11845,126,
11847,121,
11849,117,
11851,115,
11853,112,
11855,272,
11857,443,
11859,461,
11861,448,
11863,443,
11865,441,
11867,508,
11869,607,
11871,656,
11873,643,
11875,615,
11877,591,
11879,583,
11881,571,
11883,557,
11885,534,
11887,511,
11889,503,
11891,521,
11893,534,
11895,531,
11897,513,
11899,519,
11901,535,
11903,540,
11905,533,
11907,517,
11909,500,
11911,491,
11913,482,
11915,471,
11917,456,
11919,437,
11922,443,
11924,493,
11926,534,
11928,529,
11930,584,
11932,669,
11934,699,
11936,684,
11938,668,
11940,714,
11942,812,
11944,873,
11946,868,
11948,921,
11950,931,
11952,930,
11954,920,
11956,926,
11958,930,
11960,903,
11962,886,
11965,889,
11967,860,
11969,827,
11971,818,
11973,825,
11975,802,
11977,784,
11979,928,
11981,930,
11983,931,
11985,930,
11987,931,
11989,931,
11991,931,
11993,931,
11995,931,
11997,931,
11999,931,
12001,931,
12003,931,
12005,931,
12007,931,
12009,931,
12011,931,
12013,931,
12015,931,
12017,931,
12019,931,
12021,931,
12023,931,
12025,931,
12027,931,
12029,931,
12031,931,
12033,931,
12035,931,
12037,931,
12039,931,
12041,931,
12043,931,
12045,931,
12047,931,
12050,931,
12052,931,
12054,931,
12056,931,
12058,931,
12060,931,
12062,931,
12064,931,
12066,931,
12068,931,
12070,931,
12072,931,
12074,931,
12076,931,
12078,931,
12080,931,
12082,931,
12084,931,
12086,931,
12088,931,
12090,931,
12093,931,
12095,931,
12097,931,
12099,931,
12101,931,
12103,931,
12105,931,
12107,931,
12109,931,
12111,931,
12113,931,
12115,931,
12117,931,
12119,931,
12121,931,
12123,932,
12125,932,
12127,932,
12129,932,
12131,932,
12133,931,
12135,931,
12137,932,
12139,932,
12141,931,
12143,932,
12145,931,
12147,932,
12149,931,
12151,931,
12153,931,
12155,932,
12157,931,
12159,931,
12161,931,
12163,932,
12165,931,
12167,931,
12169,932,
12171,932,
12173,931,
12175,931,
12178,932,
12180,932,
12182,932,
12184,932,
12186,932,
12188,931,
12190,931,
12192,931,
12194,932,
12196,932,
12198,931,
12200,931,
12202,931,
12204,931,
12206,931,
12208,932,
12210,931,
12212,931,
12214,932,
12216,931,
12218,931,
12221,931,
12223,931,
12225,931,
12227,932,
12229,932,
12231,932,
12233,932,
12235,931,
12237,932,
12239,931,
12241,932,
12243,932,
12245,931,
12247,932,
12249,932,
12251,932,
12253,932,
12255,932,
12257,932,
12259,932,
12261,932,
12263,932,
12265,932,
12267,932,
12269,931,
12271,932,
12273,932,
12275,931,
12277,932,
12279,931,
12281,932,
12283,932,
12285,931,
12287,931,
12289,931,
12291,931,
12293,931,
12295,932,
12297,932,
12299,931,
12301,932,
12303,931,
12306,932,
12308,932,
12310,932,
12312,932,
12314,932,
12316,932,
12318,931,
12320,932,
12322,932,
12324,932,
12326,932,
12328,931,
12330,932,
12332,932,
12334,932,
12336,932,
12338,932,
12340,932,
12342,932,
12344,932,
12346,932,
12349,932,
12351,932,
12353,932,
12355,932,
12357,931,
12359,932,
12361,932,
12363,932,
12365,932,
12367,932,
12369,932,
12371,932,
12373,932,
12375,932,
12377,932,
12379,932,
12381,932,
12383,932,
12385,932,
12387,931,
12389,932,
12391,932,
12393,932,
12395,932,
12397,932,
12399,931,
12401,932,
12403,931,
12405,932,
12407,932,
12409,932,
12411,931,
12413,932,
12415,932,
12417,932,
12419,932,
12421,932,
12423,932,
12425,932,
12427,932,
12429,932,
12431,932,
12434,932,
12436,931,
12438,932,
12440,932,
12442,932,
12444,932,
12446,931,
12448,932,
12450,932,
12452,932,
12454,931,
12456,931,
12458,932,
12460,931,
12462,931,
12464,931,
12466,932,
12468,932,
12470,932,
12472,931,
12474,932,
12477,932,
12479,932,
12481,932,
12483,931,
12485,931,
12487,931,
12489,932,
12491,931,
12493,931,
12495,932,
12497,932,
12499,931,
12501,931,
12503,931,
12505,931,
12507,932,
12509,931,
12511,932,
12513,931,
12515,932,
12517,931,
12519,931,
12521,932,
12523,932,
12525,932,
12527,931,
12529,932,
12531,932,
12533,932,
12535,931,
12537,932,
12539,932,
12541,932,
12543,931,
12545,932,
12547,931,
12549,932,
12551,932,
12553,931,
12555,932,
12557,931,
12559,931,
12562,932,
12564,931,
12566,932,
12568,931,
12570,931,
12572,931,
12574,932,
12576,932,
12578,931,
12580,932,
12582,931,
12584,931,
12586,931,
12588,931,
12590,931,
12592,931,
12594,931,
12596,932,
12598,931,
12600,931,
12602,931,
12605,931,
12607,931,
12609,932,
12611,932,
12613,931,
12615,931,
12617,931,
12619,931,
12621,931,
12623,931,
12625,931,
12627,931,
12629,931,
12631,931,
12633,931,
12635,931,
12637,931,
12639,931,
12641,931,
12643,931,
12645,931,
12647,931,
12649,931,
12651,931,
12653,931,
12655,931,
12657,931,
12659,931,
12661,931,
12663,931,
12665,931,
12667,931,
12669,931,
12671,931,
12673,931,
12675,931,
12677,931,
12679,931,
12681,931,
12683,931,
12685,931,
12687,931,
12690,924,
12692,882,
12694,845,
12696,810,
12698,776,
12700,743,
12702,722,
12704,695,
12706,682,
12708,666,
12710,639,
12712,615,
12714,598,
12716,576,
12718,568,
12720,565,
12722,646,
12724,687,
12726,775,
12728,807,
12730,774,
12733,744,
12735,724,
12737,712,
12739,690,
12741,675,
12743,648,
12745,623,
12747,607,
12749,584,
12751,564,
12753,544,
12755,524,
12757,517,
12759,521,
12761,504,
12763,555,
12765,557,
12767,579,
12769,615,
12771,605,
12773,611,
12775,601,
12777,605,
12779,595,
12781,592,
12783,591,
12785,598,
12787,649,
12789,666,
12791,859,
12793,864,
12795,902,
12797,887,
12799,880,
12801,919,
12803,885,
12805,845,
12807,818,
12809,787,
12811,764,
12813,737,
12815,722,
12818,716,
12820,694,
12822,685,
12824,679,
12826,660,
12828,636,
12830,647,
12832,744,
12834,744,
12836,779,
12838,759,
12840,800,
12842,801,
12844,828,
12846,931,
12848,931,
12850,931,
12852,931,
12854,931,
12856,931,
12858,931,
12861,931,
12863,931,
12865,931,
12867,931,
12869,931,
12871,931,
12873,931,
12875,928,
12877,893,
12879,866,
12881,894,
12883,931,
12885,931,
12887,931,
12889,931,
12891,931,
12893,931,
12895,931,
12897,931,
12899,931,
12901,931,
12903,931,
12905,931,
12907,931,
12909,931,
12911,931,
12913,931,
12915,931,
12917,931,
12919,931,
12921,931,
12923,931,
12925,931,
12927,931,
12929,930,
12931,914,
12933,908,
12935,877,
12937,915,
12939,930,
12941,931,
12943,931,
12946,931,
12948,931,
12950,927,
12952,898,
12954,931,
12956,931,
12958,931,
12960,931,
12962,931,
12964,931,
12966,931,
12968,931,
12970,931,
12972,931,
12974,924,
12976,930,
12978,930,
12980,922,
12982,930,
12984,912,
12986,904,
12989,891,
12991,884,
12993,915,
12995,887,
12997,859,
12999,838,
13001,807,
13003,779,
13005,773,
13007,760,
13009,754,
13011,721,
13013,692,
13015,671,
13017,680,
13019,661,
13021,652,
13023,631,
13025,611,
13027,591,
13029,566,
13031,561,
13033,604,
13035,618,
13037,636,
13039,632,
13041,743,
13043,849,
13045,924,
13047,931,
13049,931,
13051,931,
13053,931,
13055,931,
13057,931,
13059,931,
13061,931,
13063,931,
13065,929,
13067,895,
13069,873,
13071,892,
13074,881,
13076,873,
13078,900,
13080,885,
13082,861,
13084,909,
13086,901,
13088,896,
13090,931,
13092,926,
13094,883,
13096,876,
13098,927,
13100,930,
13102,930,
13104,931,
13106,931,
13108,930,
13110,903,
13112,866,
13114,845,
13117,866,
13119,851,
13121,871,
13123,894,
13125,863,
13127,838,
13129,837,
13131,877,
13133,920,
13135,907,
13137,931,
13139,931,
13141,931,
13143,930,
13145,894,
13147,873,
13149,870,
13151,877,
13153,882,
13155,859,
13157,837,
13159,831,
13161,814,
13163,800,
13165,770,
13167,773,
13169,821,
13171,818,
13173,786,
13175,755,
13177,736,
13179,721,
13181,715,
13183,702,
13185,674,
13187,659,
13189,641,
13191,622,
13193,613,
13195,601,
13197,607,
13199,607,
13202,596,
13204,603,
13206,603,
13208,582,
13210,560,
13212,541,
13214,550,
13216,568,
13218,558,
13220,578,
13222,596,
13224,595,
13226,580,
13228,603,
13230,715,
13232,747,
13234,805,
13236,902,
13238,903,
13240,871,
13242,845,
13245,837,
13247,814,
13249,779,
13251,748,
13253,749,
13255,781,
13257,783,
13259,792,
13261,773,
13263,784,
13265,850,
13267,879,
13269,851,
13271,824,
13273,796,
13275,772,
13277,748,
13279,724,
13281,700,
13283,676,
13285,654,
13287,646,
13289,632,
13291,615,
13293,591,
13295,566,
13297,549,
13299,538,
13301,523,
13303,585,
13305,681,
13307,686,
13309,765,
13311,811,
13313,819,
13315,827,
13317,828,
13319,873,
13321,880,
13323,845,
13325,819,
13327,833,
13330,885,
13332,911,
13334,900,
13336,931,
13338,931,
13340,931,
13342,931,
13344,931,
13346,929,
13348,899,
13350,872,
13352,846,
13354,818,
13356,789,
13358,761,
13360,734,
13362,706,
13364,678,
13366,649,
13368,621,
13370,593,
13373,567,
13375,542,
13377,519,
13379,496,
13381,476,
13383,456,
13385,448,
13387,509,
13389,592,
13391,603,
13393,663,
13395,764,
13397,802,
13399,790,
13401,763,
13403,729,
13405,703,
13407,684,
13409,669,
13411,654,
13413,641,
13415,633,
13417,614,
13419,587,
13421,564,
13423,541,
13425,521,
13427,499,
13429,479,
13431,459,
13433,440,
13435,421,
13437,403,
13439,386,
13441,374,
13443,361,
13445,347,
13447,335,
13449,326,
13451,317,
13453,304,
13455,296,
13458,287,
13460,277,
13462,266,
13464,255,
13466,246,
13468,241,
13470,234,
13472,225,
13474,222,
13476,218,
13478,211,
13480,210,
13482,229,
13484,242,
13486,245,
13488,280,
13490,309,
13492,306,
13494,293,
13496,280,
13498,272,
13501,266,
13503,264,
13505,270,
13507,271,
13509,261,
13511,261,
13513,264,
13515,261,
13517,250,
13519,241,
13521,231,
13523,221,
13525,213,
13527,205,
13529,197,
13531,192,
13533,184,
13535,179,
13537,172,
13539,167,
13541,161,
13543,159,
13545,153,
13547,147,
13549,143,
13551,138,
13553,133,
13555,128,
13557,124,
13559,120,
13561,116,
13563,111,
13565,109,
13567,106,
13569,102,
13571,98,
13573,97,
13575,97,
13577,93,
13579,91,
13581,90,
13583,87,
13586,84,
13588,81,
13590,78,
13592,76,
13594,73,
13596,72,
13598,70,
13600,68,
13602,66,
13604,65,
13606,63,
13608,61,
13610,60,
13612,57,
13614,56,
13616,56,
13618,56,
13620,55,
13622,57,
13624,56,
13626,55,
13629,56,
13631,59,
13633,58,
13635,57,
13637,59,
13639,59,
13641,58,
13643,56,
13645,58,
13647,60,
13649,62,
13651,62,
13653,66,
13655,68,
13657,71,
13659,69,
13661,67,
13663,70,
13665,71,
13667,71,
13669,70,
13671,71,
13673,71,
13675,74,
13677,72,
13679,74,
13681,74,
13683,72,
13685,71,
13687,69,
13689,81,
13691,89,
13693,107,
13695,105,
13697,117,
13699,124,
13701,140,
13703,136,
13705,131,
13707,129,
13709,139,
13711,137,
13714,132,
13716,134,
13718,135,
13720,140,
13722,142,
13724,146,
13726,146,
13728,143,
13730,143,
13732,146,
13734,145,
13736,143,
13738,146,
13740,144,
13742,151,
13744,156,
13746,168,
13748,171,
13750,181,
13752,181,
13754,179,
13757,175,
13759,171,
13761,166,
13763,159,
13765,160,
13767,162,
13769,156,
13771,152,
13773,146,
13775,147,
13777,145,
13779,140,
13781,134,
13783,129,
13785,124,
13787,122,
13789,121,
13791,126,
13793,127,
13795,131,
13797,131,
13799,131,
13801,127,
13803,131,
13805,136,
13807,138,
13809,136,
13811,132,
13813,127,
13815,124,
13817,126,
13819,131,
13821,135,
13823,138,
13825,143,
13827,146,
13829,148,
13831,159,
13833,157,
13835,159,
13837,164,
13839,166,
13842,168,
13844,165,
13846,159,
13848,152,
13850,146,
13852,141,
13854,139,
13856,147,
13858,149,
13860,150,
13862,153,
13864,151,
13866,156,
13868,155,
13870,154,
13872,149,
13874,145,
13876,146,
13878,140,
13880,141,
13882,140,
13885,137,
13887,304,
13889,334,
13891,351,
13893,358,
13895,358,
13897,354,
13899,347,
13901,343,
13903,333,
13905,320,
13907,309,
13909,306,
13911,305,
13913,295,
13915,286,
13917,288,
13919,301,
13921,306,
13923,302,
13925,323,
13927,335,
13929,345,
13931,337,
13933,325,
13935,324,
13937,340,
13939,371,
13941,405,
13943,430,
13945,424,
13947,447,
13949,501,
13951,544,
13953,693,
13955,706,
13957,715,
13959,713,
13961,708,
13963,687,
13965,677,
13967,688,
13970,702,
13972,689,
13974,670,
13976,684,
13978,708,
13980,701,
13982,680,
13984,656,
13986,647,
13988,638,
13990,616,
13992,625,
13994,647,
13996,661,
13998,661,
14000,672,
14002,691,
14004,677,
14006,705,
14008,762,
14010,784,
14013,775,
14015,788,
14017,769,
14019,799,
14021,844,
14023,839,
14025,890,
14027,916,
14029,892,
14031,868,
14033,851,
14035,863,
14037,922,
14039,931,
14041,931,
14043,931,
14045,931,
14047,931,
14049,931,
14051,931,
14053,931,
14055,931,
14057,931,
14059,931,
14061,931,
14063,931,
14065,931,
14067,931,
14069,931,
14071,931,
14073,931,
14075,931,
14077,931,
14079,931,
14081,931,
14083,931,
14085,931,
14087,931,
14089,931,
14091,931,
14093,931,
14095,931,
14098,931,
14100,931,
14102,931,
14104,931,
14106,931,
14108,931,
14110,931,
14112,931,
14114,931,
14116,931,
14118,931,
14120,931,
14122,931,
14124,931,
14126,931,
14128,931,
14130,931,
14132,931,
14134,931,
14136,931,
14138,931,
14141,931,
14143,931,
14145,931,
14147,932,
14149,931,
14151,931,
14153,931,
14155,931,
14157,931,
14159,931,
14161,931,
14163,931,
14165,931,
14167,931,
14169,931,
14171,931,
14173,931,
14175,931,
14177,931,
14179,932,
14181,931,
14183,932,
14185,931,
14187,932,
14189,932,
14191,931,
14193,931,
14195,932,
14197,931,
14199,932,
14201,931,
14203,932,
14205,931,
14207,931,
14209,931,
14211,931,
14213,931,
14215,931,
14217,931,
14219,931,
14221,931,
14223,931,
14226,931,
14228,931,
14230,932,
14232,931,
14234,931,
14236,931,
14238,932,
14240,932,
14242,931,
14244,932,
14246,931,
14248,932,
14250,932,
14252,931,
14254,932,
14256,931,
14258,932,
14260,932,
14262,931,
14264,932,
14266,932,
14269,932,
14271,931,
14273,932,
14275,932,
14277,932,
14279,932,
14281,932,
14283,932,
14285,932,
14287,932,
14289,931,
14291,931,
14293,932,
14295,932,
14297,932,
14299,932,
14301,932,
14303,932,
14305,932,
14307,932,
14309,932,
14311,931,
14313,932,
14315,932,
14317,932,
14319,932,
14321,932,
14323,931,
14325,932,
14327,931,
14329,931,
14331,932,
14333,932,
14335,932,
14337,932,
14339,932,
14341,931,
14343,931,
14345,932,
14347,932,
14349,931,
14351,931,
14354,932,
14356,931,
14358,932,
14360,932,
14362,931,
14364,932,
14366,932,
14368,932,
14370,932,
14372,931,
14374,932,
14376,932,
14378,932,
14380,932,
14382,932,
14384,932,
14386,932,
14388,931,
14390,931,
14392,932,
14394,932,
14397,932,
14399,932,
14401,932,
14403,932,
14405,932,
14407,932,
14409,931,
14411,932,
14413,932,
14415,932,
14417,931,
14419,932,
14421,932,
14423,932,
14425,932,
14427,932,
14429,932,
14431,932,
14433,932,
14435,932,
14437,932,
14439,932,
14441,932,
14443,932,
14445,932,
14447,932,
14449,932,
14451,932,
14453,932,
14455,932,
14457,932,
14459,932,
14461,932,
14463,932,
14465,932,
14467,932,
14469,932,
14471,931,
14473,932,
14475,932,
14477,932,
14479,932,
14482,932,
14484,932,
14486,932,
14488,932,
14490,932,
14492,932,
14494,931,
14496,932,
14498,931,
14500,932,
14502,931,
14504,932,
14506,931,
14508,931,
14510,931,
14512,931,
14514,932,
14516,932,
14518,932,
14520,932,
14522,931,
14525,931,
14527,932,
14529,932,
14531,932,
14533,932,
14535,932,
14537,932,
14539,932,
14541,932,
14543,932,
14545,932,
14547,932,
14549,932,
14551,932,
14553,932,
14555,931,
14557,932,
14559,932,
14561,932,
14563,931,
14565,932,
14567,932,
14569,931,
14571,932,
14573,932,
14575,932,
14577,932,
14579,932,
14581,931,
14583,932,
14585,932,
14587,932,
14589,931,
14591,931,
14593,932,
14595,932,
14597,932,
14599,932,
14601,931,
14603,932,
14605,932,
14607,932,
14610,932,
14612,931,
14614,932,
14616,931,
14618,932,
14620,932,
14622,932,
14624,932,
14626,931,
14628,931,
14630,931,
14632,932,
14634,932,
14636,931,
14638,932,
14640,931,
14642,932,
14644,932,
14646,931,
14648,932,
14650,932,
14653,932,
14655,932,
14657,932,
14659,932,
14661,932,
14663,932,
14665,932,
14667,931,
14669,932,
14671,932,
14673,932,
14675,931,
14677,932,
14679,931,
14681,931,
14683,931,
14685,931,
14687,931,
14689,931,
14691,931,
14693,931,
14695,931,
14697,931,
14699,931,
14701,931,
14703,931,
14705,931,
14707,931,
14709,931,
14711,931,
14713,931,
14715,931,
14717,931,
14719,907,
14721,878,
14723,847,
14725,812,
14727,777,
14729,750,
14731,749,
14733,732,
14735,732,
14738,710,
14740,697,
14742,681,
14744,669,
14746,656,
14748,674,
14750,679,
14752,672,
14754,682,
14756,678,
14758,679,
14760,677,
14762,700,
14764,691,
14766,668,
14768,641,
14770,632,
14772,615,
14774,607,
14776,591,
14778,583,
14781,585,
14783,566,
14785,569,
14787,571,
14789,801,
14791,824,
14793,857,
14795,912,
14797,929,
14799,896,
14801,890,
14803,874,
14805,873,
14807,844,
14809,853,
14811,847,
14813,852,
14815,869,
14817,919,
14819,914,
14821,931,
14823,931,
14825,931,
14827,931,
14829,931,
14831,931,
14833,931,
14835,931,
14837,931,
14839,931,
14841,931,
14843,931,
14845,931,
14847,931,
14849,931,
14851,931,
14853,931,
14855,931,
14857,931,
14859,931,
14861,931,
14863,931,
14866,930,
14868,930,
14870,914,
14872,931,
14874,931,
14876,931,
14878,931,
14880,931,
14882,931,
14884,931,
14886,931,
14888,931,
14890,931,
14892,931,
14894,931,
14896,931,
14898,931,
14900,931,
14902,931,
14904,931,
14906,931,
14909,931,
14911,931,
14913,931,
14915,931,
14917,931,
14919,931,
14921,931,
14923,931,
14925,930,
14927,931,
14929,930,
14931,919,
14933,899,
14935,880,
14937,858,
14939,854,
14941,853,
14943,925,
14945,931,
14947,931,
14949,931,
14951,931,
14953,931,
14955,931,
14957,931,
14959,931,
14961,931,
14963,931,
14965,931,
14967,931,
14969,931,
14971,931,
14973,931,
14975,931,
14977,930,
14979,903,
14981,877,
14983,931,
14985,931,
14987,931,
14989,931,
14991,931,
14994,931,
14996,931,
14998,931,
15000,931,
15002,931,
15004,931,
15006,931,
15008,931,
15010,931,
15012,931,
15014,931,
15016,931,
15018,931,
15020,931,
15022,931,
15024,931,
15026,931,
15028,931,
15030,931,
15032,931,
15034,931,
15037,931,
15039,931,
15041,931,
15043,931,
15045,931,
15047,931,
15049,931,
15051,931,
15053,931,
15055,931,
15057,930,
15059,931,
15061,931,
15063,931,
15065,926,
15067,928,
15069,931,
15071,930,
15073,917,
15075,904,
15077,885,
15079,868,
15081,858,
15083,931,
15085,931,
15087,931,
15089,931,
15091,931,
15093,931,
15095,931,
15097,931,
15099,931,
15101,931,
15103,931,
15105,931,
15107,931,
15109,931,
15111,931,
15113,931,
15115,931,
15117,931,
15119,931,
15122,931,
15124,931,
15126,931,
15128,931,
15130,931,
15132,931,
15134,931,
15136,931,
15138,931,
15140,931,
15142,931,
15144,931,
15146,931,
15148,931,
15150,931,
15152,931,
15154,931,
15156,922,
15158,915,
15160,903,
15162,879,
15165,870,
15167,879,
15169,852,
15171,837,
15173,817,
15175,796,
15177,807,
15179,798,
15181,779,
15183,761,
15185,761,
15187,807,
15189,800,
15191,841,
15193,891,
15195,883,
15197,850,
15199,819,
15201,784,
15203,750,
15205,720,
15207,708,
15209,684,
15211,685,
15213,678,
15215,654,
15217,638,
15219,617,
15221,597,
15223,573,
15225,559,
15227,538,
15229,520,
15231,502,
15233,480,
15235,459,
15237,439,
15239,433,
15241,470,
15243,497,
15245,489,
15247,508,
15250,524,
15252,520,
15254,518,
15256,505,
15258,498,
15260,487,
15262,477,
15264,623,
15266,824,
15268,860,
15270,931,
15272,931,
15274,931,
15276,931,
15278,931,
15280,931,
15282,931,
15284,931,
15286,931,
15288,931,
15290,931,
15293,931,
15295,931,
15297,919,
15299,880,
15301,843,
15303,808,
15305,773,
15307,739,
15309,706,
15311,675,
15313,645,
15315,617,
15317,601,
15319,606,
15321,594,
15323,570,
15325,561,
15327,600,
15329,615,
15331,629,
15333,688,
15335,705,
15337,892,
15339,873,
15341,857,
15343,866,
15345,896,
15347,901,
15349,931,
15351,931,
15353,931,
15355,931,
15357,931,
15359,931,
15361,931,
15363,931,
15365,931,
15367,931,
15369,931,
15371,931,
15373,931,
15375,931,
15378,916,
15380,882,
15382,850,
15384,820,
15386,791,
15388,762,
15390,735,
15392,714,
15394,690,
15396,662,
15398,641,
15400,618,
15402,630,
15404,657,
15406,644,
15408,661,
15410,694,
15412,689,
15414,719,
15416,752,
15418,740,
15421,777,
15423,815,
15425,800,
15427,770,
15429,738,
15431,708,
15433,688,
15435,679,
15437,740,
15439,803,
15441,795,
15443,849,
15445,916,
15447,927,
15449,890,
15451,851,
15453,815,
15455,787,
15457,759,
15459,732,
15461,706,
15463,693,
15465,665,
15467,637,
15469,610,
15471,586,
15473,563,
15475,540,
15477,516,
15479,493,
15481,471,
15483,451,
15485,431,
15487,429,
15489,504,
15491,591,
15493,599,
15495,680,
15497,776,
15499,795,
15501,770,
15503,737,
15506,705,
15508,675,
15510,646,
15512,627,
15514,609,
15516,592,
15518,576,
15520,576,
15522,609,
15524,631,
15526,617,
15528,647,
15530,696,
15532,708,
15534,682,
15536,655,
15538,630,
15540,608,
15542,587,
15544,566,
15546,545,
15549,524,
15551,502,
15553,481,
15555,460,
15557,440,
15559,420,
15561,402,
15563,385,
15565,368,
15567,352,
15569,336,
15571,322,
15573,308,
15575,295,
15577,282,
15579,270,
15581,258,
15583,247,
15585,237,
15587,226,
15589,217,
15591,212,
15593,203,
15595,194,
15597,186,
15599,178,
15601,172,
15603,165,
15605,158,
15607,151,
15609,145,
15611,140,
15613,136,
15615,131,
15617,126,
15619,121,
15621,118,
15623,113,
15625,109,
15627,106,
15629,104,
15631,100,
15634,98,
15636,96,
15638,92,
15640,92,
15642,90,
15644,88,
15646,85,
15648,83,
15650,86,
15652,85,
15654,84,
15656,84,
15658,83,
15660,80,
15662,79,
15664,77,
15666,75,
15668,76,
15670,75,
15672,74,
15674,72,
15677,70,
15679,70,
15681,72,
15683,71,
15685,68,
15687,66,
15689,65,
15691,65,
15693,63,
15695,63,
15697,62,
15699,66,
15701,69,
15703,71,
15705,75,
15707,80,
15709,79,
15711,81,
15713,83,
15715,81,
15717,83,
15719,83,
15721,82,
15723,82,
15725,89,
15727,92,
15729,92,
15731,97,
15733,102,
15735,109,
15737,110,
15739,107,
15741,106,
15743,103,
15745,99,
15747,97,
15749,104,
15751,107,
15753,107,
15755,104,
15757,101,
15759,108,
15762,104,
15764,112,
15766,114,
15768,122,
15770,126,
15772,124,
15774,127,
15776,136,
15778,133,
15780,130,
15782,125,
15784,123,
15786,121,
15788,121,
15790,118,
15792,126,
15794,128,
15796,128,
15798,137,
15800,140,
15802,145,
15805,142,
15807,142,
15809,146,
15811,141,
15813,139,
15815,135,
15817,132,
15819,128,
15821,130,
15823,133,
15825,139,
15827,139,
15829,141,
15831,136,
15833,132,
15835,132,
15837,138,
15839,134,
15841,129,
15843,129,
15845,130,
15847,130,
15849,125,
15851,122,
15853,121,
15855,122,
15857,118,
15859,114,
15861,111,
15863,107,
15865,104,
15867,106,
15869,112,
15871,112,
15873,129,
15875,134,
15877,157,
15879,163,
15881,174,
15883,184,
15885,190,
15887,192,
15890,188,
15892,183,
15894,176,
15896,177,
15898,176,
15900,179,
15902,180,
15904,183,
15906,187,
15908,183,
15910,182,
15912,185,
15914,200,
15916,192,
15918,191,
15920,189,
15922,188,
15924,191,
15926,189,
15928,193,
15930,201,
15933,198,
15935,200,
15937,198,
15939,192,
15941,193,
15943,187,
15945,180,
15947,172,
15949,166,
15951,161,
15953,155,
15955,150,
15957,144,
15959,142,
15961,138,
15963,135,
15965,131,
15967,127,
15969,123,
15971,123,
15973,120,
15975,118,
15977,113,
15979,109,
15981,106,
15983,105,
15985,241,
15987,253,
15989,278,
15991,296,
15993,302,
15995,298,
15997,286,
15999,275,
16001,265,
16003,257,
16005,248,
16007,241,
16009,234,
16011,225,
16013,223,
16015,225,
16018,228,
16020,223,
16022,227,
16024,260,
16026,284,
16028,282,
16030,293,
16032,304,
16034,316,
16036,346,
16038,365,
16040,358,
16042,345,
16044,335,
16046,321,
16048,312,
16050,303,
16052,291,
16054,281,
16056,283,
16058,296,
16061,320,
16063,356,
16065,387,
16067,387,
16069,393,
16071,422,
16073,435,
16075,420,
16077,413,
16079,582,
16081,620,
16083,613,
16085,593,
16087,573,
16089,550,
16091,552,
16093,601,
16095,660,
16097,660,
16099,704,
16101,788,
16103,808,
16105,807,
16107,798,
16109,775,
16111,765,
16113,802,
16115,816,
16117,793,
16119,793,
16121,784,
16123,798,
16125,853,
16127,874,
16129,847,
16131,876,
16133,931,
16135,931,
16137,931,
16139,931,
16141,931,
16143,931,
16146,931,
16148,931,
16150,931,
16152,931,
16154,931,
16156,931,
16158,931,
16160,931,
16162,931,
16164,931,
16166,931,
16168,931,
16170,931,
16172,921,
16174,880,
16176,861,
16178,884,
16180,892,
16182,868,
16184,891,
16186,930,
16189,931,
16191,928,
16193,919,
16195,901,
16197,929,
16199,931,
16201,931,
16203,929,
16205,908,
16207,927,
16209,924,
16211,891,
16213,902,
16215,925,
16217,922,
16219,914,
16221,907,
16223,931,
16225,931,
16227,931,
16229,931,
16231,931,
16233,931,
16235,931,
16237,931,
16239,931,
16241,931,
16243,931,
16245,931,
16247,931,
16249,931,
16251,931,
16253,931,
16255,931,
16257,931,
16259,931,
16261,931,
16263,931,
16265,931,
16267,931,
16269,931,
16271,931,
16274,931,
16276,931,
16278,931,
16280,931,
16282,932,
16284,931,
16286,931,
16288,931,
16290,931,
16292,931,
16294,931,
16296,931,
16298,932,
16300,932,
16302,931,
16304,931,
16306,932,
16308,932,
16310,932,
16312,932,
16314,932,
16317,932,
16319,932,
16321,932,
16323,932,
16325,932,
16327,931,
16329,932,
16331,931,
16333,932,
16335,932,
16337,932,
16339,932,
16341,932,
16343,931,
16345,932,
16347,932,
16349,932,
16351,931,
16353,932,
16355,931,
16357,932,
16359,931,
16361,931,
16363,932,
16365,931,
16367,931,
16369,932,
16371,932,
16373,932,
16375,932,
16377,931,
16379,932,
16381,932,
16383,932,
16385,932,
16387,932,
16389,932,
16391,931,
16393,931,
16395,932,
16397,932,
16399,932,
16402,932,
16404,931,
16406,931,
16408,932,
16410,932,
16412,932,
16414,932,
16416,932,
16418,931,
16420,932,
16422,932,
16424,932,
16426,932,
16428,932,
16430,932,
16432,932,
16434,932,
16436,932,
16438,932,
16440,932,
16442,931,
16445,932,
16447,932,
16449,932,
16451,932,
16453,932,
16455,932,
16457,931,
16459,932,
16461,932,
16463,931,
16465,932,
16467,932,
16469,932,
16471,932,
16473,932,
16475,932,
16477,932,
16479,932,
16481,932,
16483,932,
16485,932,
16487,932,
16489,932,
16491,932,
16493,932,
16495,932,
16497,932,
16499,931,
16501,932,
16503,931,
16505,932,
16507,932,
16509,932,
16511,931,
16513,932,
16515,931,
16517,931,
16519,932,
16521,931,
16523,931,
16525,931,
16527,932,
16530,932,
16532,932,
16534,931,
16536,932,
16538,932,
16540,932,
16542,931,
16544,932,
16546,932,
16548,932,
16550,932,
16552,932,
16554,932,
16556,932,
16558,931,
16560,931,
16562,932,
16564,932,
16566,931,
16568,932,
16570,932,
16573,932,
16575,932,
16577,932,
16579,932,
16581,932,
16583,931,
16585,932,
16587,932,
16589,931,
16591,932,
16593,931,
16595,932,
16597,932,
16599,932,
16601,932,
16603,932,
16605,932,
16607,932,
16609,932,
16611,932,
16613,932,
16615,931,
16617,932,
16619,932,
16621,931,
16623,931,
16625,932,
16627,931,
16629,931,
16631,932,
16633,932,
16635,932,
16637,931,
16639,931,
16641,932,
16643,931,
16645,932,
16647,932,
16649,932,
16651,932,
16653,932,
16655,931,
16658,932,
16660,932,
16662,931,
16664,932,
16666,932,
16668,931,
16670,932,
16672,932,
16674,932,
16676,932,
16678,931,
16680,932,
16682,931,
16684,932,
16686,931,
16688,932,
16690,932,
16692,932,
16694,931,
16696,932,
16698,932,
16701,932,
16703,931,
16705,932,
16707,931,
16709,932,
16711,932,
16713,932,
16715,932,
16717,932,
16719,932,
16721,931,
16723,931,
16725,932,
16727,932,
16729,932,
16731,932,
16733,932,
16735,932,
16737,932,
16739,932,
16741,931,
16743,931,
16745,932,
16747,932,
16749,932,
16751,932,
16753,932,
16755,932,
16757,931,
16759,932,
16761,931,
16763,931,
16765,931,
16767,931,
16769,931,
16771,931,
16773,931,
16775,931,
16777,931,
16779,931,
16781,931,
16783,931,
16786,931,
16788,931,
16790,931,
16792,931,
16794,931,
16796,931,
16798,931,
16800,931,
16802,931,
16804,931,
16806,931,
16808,931,
16810,931,
16812,931,
16814,931,
16816,915,
16818,887,
16820,852,
16822,815,
16824,785,
16826,753,
16829,721,
16831,690,
16833,664,
16835,635,
16837,611,
16839,588,
16841,569,
16843,544,
16845,538,
16847,525,
16849,518,
16851,512,
16853,507,
16855,544,
16857,547,
16859,574,
16861,585,
16863,580,
16865,558,
16867,562,
16869,572,
16871,565,
16873,574,
16875,563,
16877,546,
16879,540,
16881,521,
16883,535,
16885,562,
16887,553,
16889,583,
16891,580,
16893,572,
16895,618,
16897,636,
16899,671,
16901,652,
16903,641,
16905,631,
16907,648,
16909,650,
16911,628,
16914,609,
16916,669,
16918,682,
16920,738,
16922,763,
16924,793,
16926,779,
16928,785,
16930,756,
16932,723,
16934,700,
16936,682,
16938,678,
16940,691,
16942,684,
16944,687,
16946,724,
16948,729,
16950,764,
16952,767,
16954,772,
16957,756,
16959,758,
16961,736,
16963,749,
16965,731,
16967,741,
16969,720,
16971,688,
16973,661,
16975,636,
16977,700,
16979,765,
16981,765,
16983,840,
16985,901,
16987,919,
16989,881,
16991,866,
16993,836,
16995,813,
16997,783,
16999,770,
17001,779,
17003,784,
17005,767,
17007,750,
17009,722,
17011,706,
17013,690,
17015,678,
17017,671,
17019,683,
17021,683,
17023,687,
17025,723,
17027,701,
17029,672,
17031,662,
17033,685,
17035,679,
17037,659,
17039,664,
17042,682,
17044,685,
17046,687,
17048,668,
17050,815,
17052,854,
17054,850,
17056,856,
17058,840,
17060,835,
17062,849,
17064,931,
17066,931,
17068,931,
17070,931,
17072,931,
17074,931,
17076,931,
17078,931,
17080,931,
17082,931,
17085,931,
17087,931,
17089,931,
17091,931,
17093,931,
17095,931,
17097,931,
17099,931,
17101,931,
17103,931,
17105,931,
17107,931,
17109,931,
17111,931,
17113,931,
17115,931,
17117,931,
17119,931,
17121,931,
17123,931,
17125,931,
17127,931,
17129,931,
17131,931,
17133,931,
17135,931,
17137,931,
17139,931,
17141,931,
17143,931,
17145,931,
17147,931,
17149,931,
17151,931,
17153,931,
17155,931,
17157,931,
17159,931,
17161,931,
17163,931,
17165,931,
17167,931,
17170,931,
17172,931,
17174,931,
17176,931,
17178,931,
17180,931,
17182,931,
17184,931,
17186,931,
17188,931,
17190,931,
17192,905,
17194,866,
17196,836,
17198,831,
17200,815,
17202,780,
17204,748,
17206,716,
17208,700,
17210,691,
17213,706,
17215,744,
17217,831,
17219,827,
17221,860,
17223,931,
17225,931,
17227,931,
17229,931,
17231,930,
17233,912,
17235,889,
17237,884,
17239,877,
17241,902,
17243,899,
17245,908,
17247,930,
17249,918,
17251,883,
17253,878,
17255,882,
17257,863,
17259,834,
17261,808,
17263,786,
17265,767,
17267,746,
17269,725,
17271,708,
17273,696,
17275,675,
17277,664,
17279,659,
17281,646,
17283,622,
17285,622,
17287,701,
17289,852,
17291,870,
17293,931,
17295,931,
17298,931,
17300,931,
17302,931,
17304,931,
17306,931,
17308,931,
17310,931,
17312,931,
17314,931,
17316,931,
17318,931,
17320,931,
17322,931,
17324,931,
17326,931,
17328,931,
17330,931,
17332,931,
17334,931,
17336,931,
17338,931,
17341,931,
17343,931,
17345,931,
17347,931,
17349,927,
17351,892,
17353,883,
17355,858,
17357,844,
17359,846,
17361,836,
17363,801,
17365,787,
17367,840,
17369,890,
17371,878,
17373,918,
17375,931,
17377,931,
17379,931,
17381,923,
17383,900,
17385,863,
17387,840,
17389,856,
17391,859,
17393,836,
17395,837,
17397,814,
17399,785,
17401,767,
17403,750,
17405,722,
17407,696,
17409,678,
17411,667,
17413,644,
17415,620,
17417,627,
17419,697,
17421,731,
17423,713,
17426,735,
17428,724,
17430,712,
17432,757,
17434,817,
17436,831,
17438,811,
17440,830,
17442,915,
17444,931,
17446,931,
17448,931,
17450,931,
17452,931,
17454,931,
17456,931,
17458,931,
17460,931,
17462,931,
17464,931,
17466,931,
17469,931,
17471,931,
17473,929,
17475,895,
17477,858,
17479,829,
17481,805,
17483,774,
17485,747,
17487,727,
17489,701,
17491,671,
17493,648,
17495,621,
17497,594,
17499,568,
17501,579,
17503,628,
17505,652,
17507,660,
17509,730,
17511,756,
17513,756,
17515,728,
17517,697,
17519,673,
17521,658,
17523,659,
17525,669,
17527,664,
17529,643,
17531,633,
17533,617,
17535,591,
17537,569,
17539,549,
17541,546,
17543,550,
17545,548,
17547,531,
17549,509,
17551,491,
17554,473,
17556,457,
17558,442,
17560,428,
17562,413,
17564,397,
17566,506,
17568,508,
17570,506,
17572,500,
17574,488,
17576,491,
17578,527,
17580,546,
17582,549,
17584,609,
17586,640,
17588,625,
17590,606,
17592,593,
17594,582,
17597,559,
17599,537,
17601,517,
17603,500,
17605,486,
17607,478,
17609,471,
17611,460,
17613,444,
17615,438,
17617,428,
17619,410,
17621,392,
17623,376,
17625,360,
17627,345,
17629,330,
17631,316,
17633,303,
17635,290,
17637,278,
17639,273,
17641,262,
17643,253,
17645,243,
17647,233,
17649,223,
17651,214,
17653,205,
17655,196,
17657,188,
17659,180,
17661,172,
17663,165,
17665,159,
17667,154,
17669,147,
17671,142,
17673,136,
17675,130,
17677,127,
17679,121,
17682,117,
17684,113,
17686,109,
17688,104,
17690,100,
17692,97,
17694,93,
17696,90,
17698,87,
17700,83,
17702,81,
17704,78,
17706,75,
17708,74,
17710,74,
17712,72,
17714,70,
17716,67,
17718,65,
17720,63,
17722,61,
17725,59,
17727,57,
17729,56,
17731,56,
17733,57,
17735,56,
17737,54,
17739,52,
17741,51,
17743,50,
17745,50,
17747,52,
17749,51,
17751,49,
17753,49,
17755,47,
17757,46,
17759,46,
17761,45,
17763,43,
17765,42,
17767,42,
17769,41,
17771,40,
17773,43,
17775,44,
17777,45,
17779,51,
17781,51,
17783,49,
17785,48,
17787,46,
17789,45,
17791,44,
17793,43,
17795,45,
17797,47,
17799,47,
17801,49,
17803,50,
17805,49,
17807,52,
17810,58,
17812,58,
17814,56,
17816,56,
17818,55,
17820,56,
17822,56,
17824,56,
17826,54,
17828,55,
17830,55,
17832,55,
17834,56,
17836,55,
17838,54,
17840,54,
17842,53,
17844,52,
17846,51,
17848,50,
17850,51,
17853,50,
17855,383,
17857,429,
17859,472,
17861,498,
17863,516,
17865,528,
17867,524,
17869,516,
17871,504,
17873,484,
17875,466,
17877,451,
17879,437,
17881,428,
17883,417,
17885,404,
17887,394,
17889,389,
17891,379,
17893,381,
17895,376,
17897,371,
17899,366,
17901,350,
17903,348,
17905,346,
17907,334,
17909,320,
17911,307,
17913,294,
17915,283,
17917,288,
17919,282,
17921,271,
17923,274,
17925,270,
17927,261,
17929,255,
17931,249,
17933,244,
17935,240,
17938,237,
17940,227,
17942,219,
17944,215,
17946,223,
17948,332,
17950,338,
17952,346,
17954,337,
17956,330,
17958,328,
17960,324,
17962,312,
17964,301,
17966,294,
17968,285,
17970,272,
17972,263,
17974,264,
17976,271,
17978,266,
17981,427,
17983,442,
17985,445,
17987,438,
17989,433,
17991,432,
17993,423,
17995,409,
17997,397,
17999,391,
18001,382,
18003,372,
18005,358,
18007,344,
18009,335,
18011,324,
18013,317,
18015,314,
18017,315,
18019,314,
18021,303,
18023,301,
18025,295,
18027,288,
18029,281,
18031,281,
18033,271,
18035,262,
18037,267,
18039,261,
18041,251,
18043,241,
18045,380,
18047,398,
18049,407,
18051,401,
18053,389,
18055,391,
18057,388,
18059,377,
18061,371,
18063,367,
18066,360,
18068,354,
18070,369,
18072,380,
18074,370,
18076,362,
18078,353,
18080,339,
18082,330,
18084,343,
18086,369,
18088,377,
18090,364,
18092,358,
18094,368,
18096,415,
18098,456,
18100,458,
18102,439,
18104,422,
18106,411,
18109,413,
18111,430,
18113,457,
18115,488,
18117,520,
18119,520,
18121,534,
18123,577,
18125,614,
18127,639,
18129,651,
18131,633,
18133,613,
18135,605,
18137,612,
18139,652,
18141,722,
18143,763,
18145,763,
18147,737,
18149,708,
18151,708,
18153,761,
18155,856,
18157,904,
18159,886,
18161,856,
18163,838,
18165,870,
18167,931,
18169,931,
18171,931,
18173,931,
18175,931,
18177,931,
18179,931,
18181,931,
18183,931,
18185,931,
18187,931,
18189,931,
18191,931,
18194,931,
18196,931,
18198,931,
18200,931,
18202,931,
18204,932,
18206,931,
18208,931,
18210,932,
18212,932,
18214,931,
18216,931,
18218,932,
18220,931,
18222,931,
18224,931,
18226,931,
18228,931,
18230,931,
18232,931,
18234,931,
18237,931,
18239,931,
18241,931,
18243,931,
18245,931,
18247,932,
18249,932,
18251,932,
18253,932,
18255,931,
18257,931,
18259,932,
18261,931,
18263,931,
18265,931,
18267,931,
18269,931,
18271,931,
18273,931,
18275,931,
18277,931,
18279,931,
18281,931,
18283,931,
18285,931,
18287,931,
18289,931,
18291,931,
18293,931,
18295,931,
18297,932,
18299,931,
18301,931,
18303,931,
18305,932,
18307,931,
18309,931,
18311,931,
18313,931,
18315,931,
18317,931,
18319,931,
18322,932,
18324,931,
18326,931,
18328,932,
18330,932,
18332,932,
18334,931,
18336,931,
18338,931,
18340,932,
18342,932,
18344,931,
18346,932,
18348,932,
18350,932,
18352,931,
18354,932,
18356,932,
18358,931,
18360,932,
18362,932,
18365,932,
18367,931,
18369,931,
18371,932,
18373,932,
18375,932,
18377,932,
18379,932,
18381,932,
18383,931,
18385,932,
18387,932,
18389,931,
18391,932,
18393,931,
18395,932,
18397,932,
18399,932,
18401,931,
18403,932,
18405,932,
18407,932,
18409,932,
18411,932,
18413,932,
18415,931,
18417,932,
18419,932,
18421,931,
18423,932,
18425,931,
18427,931,
18429,932,
18431,931,
18433,932,
18435,931,
18437,932,
18439,931,
18441,932,
18443,931,
18445,931,
18447,932,
18450,931,
18452,931,
18454,931,
18456,931,
18458,931,
18460,932,
18462,932,
18464,932,
18466,932,
18468,931,
18470,932,
18472,932,
18474,932,
18476,932,
18478,932,
18480,932,
18482,931,
18484,932,
18486,932,
18488,932,
18490,932,
18493,932,
18495,931,
18497,932,
18499,932,
18501,931,
18503,932,
18505,932,
18507,932,
18509,932,
18511,932,
18513,931,
18515,932,
18517,932,
18519,932,
18521,932,
18523,931,
18525,932,
18527,932,
18529,932,
18531,932,
18533,932,
18535,932,
18537,932,
18539,932,
18541,932,
18543,931,
18545,932,
18547,932,
18549,932,
18551,931,
18553,932,
18555,932,
18557,932,
18559,932,
18561,932,
18563,931,
18565,932,
18567,932,
18569,932,
18571,932,
18573,931,
18575,932,
18578,932,
18580,932,
18582,932,
18584,932,
18586,931,
18588,932,
18590,932,
18592,932,
18594,932,
18596,932,
18598,932,
18600,932,
18602,932,
18604,931,
18606,932,
18608,932,
18610,932,
18612,931,
18614,931,
18616,932,
18618,931,
18621,931,
18623,932,
18625,932,
18627,932,
18629,932,
18631,932,
18633,932,
18635,932,
18637,932,
18639,932,
18641,932,
18643,932,
18645,932,
18647,932,
18649,932,
18651,932,
18653,932,
18655,932,
18657,932,
18659,932,
18661,932,
18663,932,
18665,931,
18667,932,
18669,932,
18671,932,
18673,932,
18675,932,
18677,931,
18679,932,
18681,932,
18683,932,
18685,932,
18687,932,
18689,932,
18691,932,
18693,932,
18695,932,
18697,932,
18699,932,
18701,932,
18703,931,
18706,932,
18708,932,
18710,932,
18712,931,
18714,932,
18716,932,
18718,931,
18720,931,
18722,932,
18724,932,
18726,932,
18728,932,
18730,932,
18732,931,
18734,931,
18736,932,
18738,932,
18740,932,
18742,932,
18744,932,
18746,932,
18749,931,
18751,932,
18753,932,
18755,932,
18757,932,
18759,932,
18761,931,
18763,932,
18765,932,
18767,931,
18769,932,
18771,932,
18773,931,
18775,932,
18777,932,
18779,932,
18781,932,
18783,932,
18785,931,
18787,932,
18789,932,
18791,932,
18793,932,
18795,932,
18797,932,
18799,931,
18801,931,
18803,932,
18805,932,
18807,932,
18809,932,
18811,931,
18813,932,
18815,932,
18817,932,
18819,932,
18821,932,
18823,931,
18825,931,
18827,931,
18829,931,
18831,931,
18834,931,
18836,931,
18838,931,
18840,931,
18842,931,
18844,931,
18846,931,
18848,931,
18850,931,
18852,931,
18854,931,
18856,931,
18858,931,
18860,931,
18862,931,
18864,931,
18866,931,
18868,931,
18870,931,
18872,931,
18874,931,
18877,931,
18879,931,
18881,931,
18883,931,
18885,931,
18887,931,
18889,931,
18891,931,
18893,920,
18895,877,
18897,846,
18899,819,
18901,784,
18903,750,
18905,728,
18907,735,
18909,706,
18911,678,
18913,654,
18915,638,
18917,618,
18919,611,
18921,585,
18923,562,
18925,564,
18927,554,
18929,553,
18931,564,
18933,544,
18935,550,
18937,548,
18939,603,
18941,604,
18943,619,
18945,638,
18947,669,
18949,728,
18951,748,
18953,757,
18955,740,
18957,713,
18959,688,
18962,662,
18964,634,
18966,608,
18968,585,
18970,569,
18972,554,
18974,586,
18976,673,
18978,745,
18980,906,
18982,931,
18984,931,
18986,931,
18988,931,
18990,931,
18992,931,
18994,930,
18996,930,
18998,910,
19000,872,
19002,843,
19005,809,
19007,793,
19009,813,
19011,809,
19013,870,
19015,874,
19017,931,
19019,930,
19021,931,
19023,930,
19025,910,
19027,881,
19029,852,
19031,879,
19033,862,
19035,872,
19037,881,
19039,931,
19041,931,
19043,931,
19045,931,
19047,931,
19049,931,
19051,931,
19053,931,
19055,931,
19057,931,
19059,931,
19061,931,
19063,930,
19065,916,
19067,906,
19069,883,
19071,848,
19073,827,
19075,819,
19077,931,
19079,931,
19081,931,
19083,931,
19085,931,
19087,931,
19090,931,
19092,931,
19094,931,
19096,931,
19098,926,
19100,896,
19102,861,
19104,846,
19106,859,
19108,912,
19110,931,
19112,931,
19114,931,
19116,931,
19118,931,
19120,931,
19122,931,
19124,931,
19126,931,
19128,931,
19130,931,
19133,931,
19135,931,
19137,931,
19139,931,
19141,931,
19143,931,
19145,931,
19147,931,
19149,931,
19151,931,
19153,931,
19155,931,
19157,931,
19159,931,
19161,931,
19163,931,
19165,931,
19167,931,
19169,931,
19171,931,
19173,931,
19175,931,
19177,931,
19179,931,
19181,931,
19183,931,
19185,931,
19187,931,
19189,931,
19191,931,
19193,931,
19195,931,
19197,931,
19199,931,
19201,931,
19203,931,
19205,931,
19207,931,
19209,931,
19211,931,
19213,931,
19215,932,
19218,931,
19220,931,
19222,931,
19224,931,
19226,931,
19228,931,
19230,931,
19232,931,
19234,931,
19236,931,
19238,931,
19240,931,
19242,931,
19244,931,
19246,931,
19248,931,
19250,931,
19252,931,
19254,931,
19256,931,
19258,931,
19261,931,
19263,931,
19265,931,
19267,931,
19269,931,
19271,931,
19273,931,
19275,931,
19277,931,
19279,931,
19281,931,
19283,931,
19285,931,
19287,931,
19289,931,
19291,931,
19293,931,
19295,931,
19297,931,
19299,931,
19301,931,
19303,931,
19305,931,
19307,931,
19309,931,
19311,931,
19313,931,
19315,931,
19317,931,
19319,931,
19321,931,
19323,931,
19325,931,
19327,926,
19329,887,
19331,874,
19333,922,
19335,931,
19337,931,
19339,931,
19341,931,
19343,931,
19346,931,
19348,931,
19350,931,
19352,931,
19354,931,
19356,931,
19358,931,
19360,931,
19362,931,
19364,931,
19366,931,
19368,931,
19370,931,
19372,931,
19374,931,
19376,931,
19378,931,
19380,931,
19382,929,
19384,904,
19386,878,
19389,849,
19391,816,
19393,784,
19395,757,
19397,730,
19399,713,
19401,701,
19403,675,
19405,659,
19407,639,
19409,640,
19411,815,
19413,931,
19415,931,
19417,931,
19419,931,
19421,931,
19423,932,
19425,931,
19427,931,
19429,931,
19431,931,
19433,931,
19435,931,
19437,931,
19439,931,
19441,931,
19443,931,
19445,931,
19447,931,
19449,931,
19451,931,
19453,931,
19455,931,
19457,931,
19459,931,
19461,931,
19463,931,
19465,931,
19467,931,
19469,931,
19471,930,
19474,909,
19476,873,
19478,834,
19480,798,
19482,783,
19484,779,
19486,802,
19488,834,
19490,818,
19492,864,
19494,930,
19496,930,
19498,895,
19500,857,
19502,826,
19504,791,
19506,762,
19508,731,
19510,698,
19512,668,
19514,660,
19517,742,
19519,863,
19521,885,
19523,916,
19525,931,
19527,931,
19529,931,
19531,931,
19533,931,
19535,931,
19537,931,
19539,931,
19541,930,
19543,905,
19545,875,
19547,846,
19549,824,
19551,809,
19553,790,
19555,760,
19557,728,
19559,720,
19561,863,
19563,877,
19565,891,
19567,886,
19569,856,
19571,825,
19573,826,
19575,823,
19577,797,
19579,802,
19581,791,
19583,761,
19585,748,
19587,746,
19589,722,
19591,702,
19593,676,
19595,650,
19597,634,
19599,618,
19602,597,
19604,571,
19606,550,
19608,553,
19610,585,
19612,610,
19614,596,
19616,614,
19618,640,
19620,646,
19622,638,
19624,620,
19626,594,
19628,582,
19630,605,
19632,637,
19634,628,
19636,651,
19638,687,
19640,678,
19642,651,
19645,624,
19647,598,
19649,574,
19651,552,
19653,531,
19655,511,
19657,491,
19659,471,
19661,451,
19663,431,
19665,412,
19667,394,
19669,376,
19671,360,
19673,344,
19675,329,
19677,315,
19679,301,
19681,288,
19683,275,
19685,263,
19687,258,
19689,247,
19691,237,
19693,228,
19695,219,
19697,209,
19699,200,
19701,192,
19703,184,
19705,176,
19707,169,
19709,162,
19711,155,
19713,148,
19715,142,
19717,136,
19719,131,
19721,126,
19723,121,
19725,115,
19727,111,
19730,107,
19732,102,
19734,98,
19736,95,
19738,91,
19740,88,
19742,84,
19744,81,
19746,78,
19748,75,
19750,73,
19752,70,
19754,68,
19756,66,
19758,66,
19760,64,
19762,62,
19764,60,
19766,57,
19768,56,
19770,55,
19773,53,
19775,52,
19777,50,
19779,48,
19781,47,
19783,46,
19785,45,
19787,46,
19789,45,
19791,43,
19793,42,
19795,41,
19797,40,
19799,40,
19801,39,
19803,39,
19805,38,
19807,37,
19809,38,
19811,39,
19813,38,
19815,39,
19817,39,
19819,43,
19821,42,
19823,41,
19825,42,
19827,42,
19829,41,
19831,40,
19833,41,
19835,40,
19837,40,
19839,40,
19841,39,
19843,40,
19845,39,
19847,39,
19849,38,
19851,37,
19853,36,
19855,35,
19858,35,
19860,34,
19862,33,
19864,33,
19866,33,
19868,35,
19870,36,
19872,36,
19874,37,
19876,45,
19878,47,
19880,49,
19882,49,
19884,54,
19886,56,
19888,56,
19890,57,
19892,56,
19894,58,
19896,57,
19898,57,
19901,56,
19903,58,
19905,58,
19907,59,
19909,61,
19911,67,
19913,68,
19915,67,
19917,67,
19919,67,
19921,69,
19923,68,
19925,68,
19927,68,
19929,68,
19931,71,
19933,73,
19935,74,
19937,74,
19939,71,
19941,75,
19943,74,
19945,72,
19947,77,
19949,78,
19951,77,
19953,78,
19955,79,
19957,80,
19959,81,
19961,85,
19963,85,
19965,87,
19967,87,
19969,86,
19971,88,
19973,89,
19975,88,
19977,94,
19979,94,
19981,92,
19983,96,
19986,99,
19988,108,
19990,109,
19992,108,
19994,111,
19996,109,
19998,110,
20000,110,
20002,115,
20004,118,
20006,136,
20008,146,
20010,144,
20012,142,
20014,137,
20016,136,
20018,144,
20020,144,
20022,149,
20024,148,
20026,145,
20029,142,
20031,139,
20033,148,
20035,156,
20037,159,
20039,162,
20041,170,
20043,171,
20045,177,
20047,175,
20049,169,
20051,180,
20053,188,
20055,197,
20057,200,
20059,197,
20061,194,
20063,196,
20065,192,
20067,188,
20069,182,
20071,179,
20073,172,
20075,167,
20077,167,
20079,161,
20081,156,
20083,153,
20085,148,
20087,143,
20089,139,
20091,135,
20093,131,
20095,132,
20097,128,
20099,128,
20101,123,
20103,128,
20105,130,
20107,134,
20109,137,
20111,134,
20114,130,
20116,127,
20118,123,
20120,119,
20122,115,
20124,112,
20126,113,
20128,117,
20130,117,
20132,120,
20134,117,
20136,114,
20138,111,
20140,107,
20142,104,
20144,102,
20146,100,
20148,105,
20150,113,
20152,126,
20154,149,
20157,170,
20159,173,
20161,181,
20163,218,
20165,258,
20167,271,
20169,280,
20171,318,
20173,344,
20175,342,
20177,377,
20179,407,
20181,399,
20183,383,
20185,370,
20187,359,
20189,369,
20191,407,
20193,445,
20195,445,
20197,503,
20199,540,
20201,575,
20203,560,
20205,544,
20207,526,
20209,527,
20211,572,
20213,625,
20215,643,
20217,624,
20219,630,
20221,621,
20223,598,
20225,593,
20227,620,
20229,651,
20231,657,
20233,638,
20235,650,
20237,651,
20239,723,
20242,771,
20244,770,
20246,824,
20248,882,
20250,872,
20252,931,
20254,931,
20256,931,
20258,931,
20260,931,
20262,931,
20264,931,
20266,931,
20268,931,
20270,931,
20272,931,
20274,931,
20276,931,
20278,931,
20280,931,
20282,931,
20285,931,
20287,931,
20289,931,
20291,931,
20293,931,
20295,931,
20297,932,
20299,931,
20301,932,
20303,932,
20305,931,
20307,932,
20309,931,
20311,931,
20313,932,
20315,931,
20317,931,
20319,931,
20321,931,
20323,931,
20325,931,
20327,932,
20329,931,
20331,932,
20333,931,
20335,932,
20337,932,
20339,932,
20341,932,
20343,932,
20345,932,
20347,932,
20349,932,
20351,932,
20353,931,
20355,932,
20357,932,
20359,932,
20361,931,
20363,931,
20365,932,
20367,931,
20370,932,
20372,932,
20374,932,
20376,931,
20378,932,
20380,932,
20382,932,
20384,932,
20386,932,
20388,932,
20390,932,
20392,932,
20394,931,
20396,931,
20398,931,
20400,932,
20402,931,
20404,932,
20406,932,
20408,931,
20410,932,
20413,931,
20415,931,
20417,931,
20419,932,
20421,931,
20423,931,
20425,931,
20427,932,
20429,931,
20431,931,
20433,932,
20435,931,
20437,932,
20439,931,
20441,931,
20443,931,
20445,931,
20447,931,
20449,931,
20451,931,
20453,931,
20455,932,
20457,931,
20459,931,
20461,931,
20463,931,
20465,931,
20467,932,
20469,932,
20471,932,
20473,931,
20475,932,
20477,931,
20479,932,
20481,932,
20483,931,
20485,931,
20487,931,
20489,932,
20491,931,
20493,931,
20495,932,
20498,931,
20500,932,
20502,932,
20504,932,
20506,931,
20508,932,
20510,932,
20512,932,
20514,931,
20516,932,
20518,932,
20520,932,
20522,931,
20524,931,
20526,931,
20528,931,
20530,932,
20532,932,
20534,931,
20536,931,
20538,932,
20541,931,
20543,932,
20545,931,
20547,932,
20549,931,
20551,931,
20553,932,
20555,931,
20557,932,
20559,932,
20561,932,
20563,931,
20565,932,
20567,932,
20569,932,
20571,932,
20573,931,
20575,932,
20577,932,
20579,932,
20581,932,
20583,932,
20585,932,
20587,931,
20589,932,
20591,932,
20593,932,
20595,931,
20597,932,
20599,932,
20601,932,
20603,931,
20605,932,
20607,931,
20609,932,
20611,932,
20613,932,
20615,932,
20617,932,
20619,931,
20621,932,
20623,932,
20626,932,
20628,932,
20630,932,
20632,931,
20634,932,
20636,932,
20638,932,
20640,932,
20642,931,
20644,932,
20646,932,
20648,932,
20650,932,
20652,932,
20654,932,
20656,932,
20658,932,
20660,932,
20662,932,
20664,932,
20666,931,
20669,932,
20671,932,
20673,932,
20675,932,
20677,932,
20679,932,
20681,932,
20683,931,
20685,932,
20687,932,
20689,932,
20691,932,
20693,932,
20695,932,
20697,932,
20699,932,
20701,931,
20703,932,
20705,932,
20707,931,
20709,932,
20711,932,
20713,932,
20715,932,
20717,932,
20719,931,
20721,932,
20723,931,
20725,932,
20727,931,
20729,932,
20731,932,
20733,932,
20735,931,
20737,932,
20739,932,
20741,932,
20743,932,
20745,932,
20747,932,
20749,931,
20751,932,
20754,931,
20756,932,
20758,931,
20760,932,
20762,932,
20764,932,
20766,931,
20768,932,
20770,932,
20772,932,
20774,932,
20776,932,
20778,932,
20780,932,
20782,932,
20784,931,
20786,932,
20788,932,
20790,932,
20792,932,
20794,932,
20797,932,
20799,932,
20801,932,
20803,931,
20805,932,
20807,931,
20809,932,
20811,932,
20813,932,
20815,932,
20817,932,
20819,932,
20821,932,
20823,932,
20825,932,
20827,931,
20829,932,
20831,932,
20833,932,
20835,932,
20837,931,
20839,932,
20841,932,
20843,932,
20845,932,
20847,932,
20849,932,
20851,932,
20853,932,
20855,931,
20857,932,
20859,931,
20861,932,
20863,931,
20865,931,
20867,931,
20869,932,
20871,932,
20873,932,
20875,932,
20877,932,
20879,932,
20882,932,
20884,932,
20886,931,
20888,932,
20890,932,
20892,931,
20894,931,
20896,931,
20898,931,
20900,931,
20902,931,
20904,931,
20906,931,
20908,932,
20910,932,
20912,931,
20914,931,
20916,931,
20918,931,
20920,931,
20922,932,
20925,931,
20927,931,
20929,931,
20931,931,
20933,932,
20935,931,
20937,931,
20939,932,
20941,931,
20943,931,
20945,931,
20947,931,
20949,931,
20951,931,
20953,931,
20955,931,
20957,931,
20959,931,
20961,931,
20963,931,
20965,931,
20967,930,
20969,914,
20971,891,
20973,882,
20975,878,
20977,878,
20979,852,
20981,835,
20983,807,
20985,774,
20987,741,
20989,708,
20991,696,
20993,679,
20995,687,
20997,673,
20999,677,
21001,660,
21003,635,
21005,607,
21007,580,
21010,555,
21012,530,
21014,634,
21016,627,
21018,617,
21020,599,
21022,582,
21024,597,
21026,595,
21028,645,
21030,675,
21032,647,
21034,621,
21036,594,
21038,580,
21040,603,
21042,751,
21044,809,
21046,930,
21048,931,
21050,931,
21053,931,
21055,915,
21057,890,
21059,880,
21061,851,
21063,826,
21065,810,
21067,777,
21069,742,
21071,714,
21073,712,
21075,690,
21077,671,
21079,649,
21081,633,
21083,609,
21085,610,
21087,597,
21089,599,
21091,611,
21093,605,
21095,615,
21097,599,
21099,577,
21101,565,
21103,573,
21105,575,
21107,595,
21109,597,
21111,590,
21113,579,
21115,619,
21117,633,
21119,653,
21121,653,
21123,635,
21125,639,
21127,620,
21129,607,
21131,591,
21133,571,
21135,573,
21138,599,
21140,580,
21142,587,
21144,582,
21146,575,
21148,560,
21150,544,
21152,537,
21154,607,
21156,647,
21158,670,
21160,745,
21162,784,
21164,931,
21166,931,
21168,931,
21170,931,
21172,931,
21174,931,
21176,931,
21178,931,
21181,914,
21183,883,
21185,930,
21187,931,
21189,931,
21191,931,
21193,931,
21195,931,
21197,931,
21199,931,
21201,931,
21203,931,
21205,931,
21207,931,
21209,931,
21211,931,
21213,931,
21215,931,
21217,931,
21219,931,
21221,930,
21223,930,
21225,931,
21227,930,
21229,931,
21231,931,
21233,931,
21235,931,
21237,931,
21239,931,
21241,931,
21243,931,
21245,931,
21247,931,
21249,931,
21251,931,
21253,931,
21255,931,
21257,931,
21259,931,
21261,931,
21263,931,
21266,931,
21268,931,
21270,931,
21272,931,
21274,931,
21276,931,
21278,931,
21280,931,
21282,931,
21284,931,
21286,931,
21288,931,
21290,931,
21292,931,
21294,931,
21296,931,
21298,931,
21300,931,
21302,932,
21304,931,
21306,931,
21309,932,
21311,931,
21313,932,
21315,931,
21317,931,
21319,931,
21321,931,
21323,931,
21325,931,
21327,931,
21329,931,
21331,931,
21333,931,
21335,931,
21337,931,
21339,931,
21341,931,
21343,931,
21345,931,
21347,931,
21349,931,
21351,931,
21353,931,
21355,931,
21357,931,
21359,931,
21361,931,
21363,931,
21365,931,
21367,931,
21369,931,
21371,931,
21373,931,
21375,931,
21377,931,
21379,931,
21381,931,
21383,931,
21385,931,
21387,931,
21389,931,
21391,931,
21394,931,
21396,931,
21398,931,
