Timestamp (ms),EMG Value0,472,474,476,488,4710,4612,4414,4416,4318,4220,4122,4124,4126,4128,4030,3932,3834,3936,3938,4040,4242,4044,4146,4348,4350,4152,4154,4056,4158,4061,3963,3865,3867,3969,3971,3973,4275,4377,4479,4381,4683,5085,5687,5889,5791,5693,5495,5397,5299,51101,50103,50105,50107,49109,48111,47113,48115,47117,47119,47121,46123,45125,43127,42129,42131,43133,43135,42137,42139,41141,40143,42146,41148,40150,40152,38154,37156,37158,37160,36162,36164,35166,35168,34170,33172,33174,32176,32178,31180,30182,30184,30186,30189,30191,31193,33195,40197,41199,41201,43203,42205,44207,46209,45211,45213,44215,43217,42219,41221,40223,39225,38227,38229,38231,38233,36235,35237,35239,34241,33243,32245,33247,34249,34251,33253,37255,37257,39259,42261,45263,49265,48267,48269,47271,47274,46276,49278,48280,49282,47284,46286,45288,46290,45292,44294,42296,41298,40300,40302,39304,38306,37308,36310,35312,34314,33317,32319,32321,32323,32325,32327,31329,31331,33333,33335,33337,33339,33341,33343,34345,35347,34349,34351,33353,33355,33357,32359,32361,31363,30365,30367,29369,29371,28373,27375,27377,27379,27381,26383,27385,26387,26389,25391,25393,24395,24397,24399,24402,23404,23406,23408,23410,22412,22414,23416,22418,23420,25422,25424,25426,25428,24430,25432,25434,25436,25438,24440,24442,25445,24447,24449,24451,23453,25455,26457,25459,25461,28463,28465,29467,31469,32471,31473,31475,30477,29479,29481,28483,27485,27487,26489,26491,25493,25495,24497,24499,24501,23503,23505,23507,22509,22511,22513,21515,21517,21519,21521,21523,22525,25527,25530,24532,25534,25536,25538,26540,26542,26544,25546,25548,24550,23552,23554,23556,23558,22560,22562,22564,21566,21568,21570,21573,20575,20577,20579,20581,20583,20585,23587,26589,25591,28593,27595,27597,26599,26601,25603,25605,24607,24609,23611,23613,23615,23617,24619,24621,24623,24625,24627,23629,23631,23633,22635,22637,22639,21641,21643,21645,21647,20649,20651,20653,23655,26658,27660,28662,28664,27666,27668,26670,26672,25674,25676,25678,25680,25682,24684,24686,23688,23690,23692,22694,22696,21698,21701,21703,21705,20707,20709,20711,21713,22715,22717,22719,22721,21723,21725,21727,21729,21731,21733,21735,20737,20739,20741,20743,20745,20747,20749,19751,19753,19755,19757,19759,19761,19763,18765,18767,18769,18771,18773,17775,17777,17779,17781,17783,17786,18788,20790,20792,20794,20796,20798,20800,20802,20804,20806,20808,20810,20812,20814,20816,19818,19820,19822,20824,20826,20829,20831,19833,19835,19837,19839,19841,19843,19845,19847,19849,19851,19853,18855,18857,18859,18861,18863,18865,18867,18869,19871,19873,20875,20877,21879,21881,20883,20885,20887,20889,21891,21893,21895,21897,21899,21901,21903,20905,20907,20909,20911,19914,19916,19918,19920,19922,19924,18926,18928,18930,18932,18934,18936,18938,21940,24942,24944,28946,28948,27950,27952,26954,26957,25959,25961,24963,24965,23967,23969,23971,22973,22975,22977,22979,22981,22983,22985,21987,21989,21991,20993,20995,21997,23999,241001,231003,231005,231007,231009,231011,221013,221015,221017,211019,211021,211023,211025,211027,211029,211031,211033,201035,201037,201039,191042,191044,191046,191048,191050,211052,231054,231056,231058,231060,231062,241064,251066,251068,241070,241072,231074,231076,231078,241080,231082,231085,231087,241089,251091,261093,261095,251097,261099,251101,251103,241105,251107,261109,291111,281113,281115,281117,271119,261121,261123,251125,251127,251129,241131,241133,241135,231137,231139,241141,241143,241145,241147,241149,251151,251153,251155,251157,271159,271161,281163,281165,281167,291170,291172,291174,301176,301178,301180,301182,321184,351186,361188,401190,441192,431194,451196,501198,511200,521202,511204,501206,501208,491210,471213,461215,441217,431219,421221,421223,441225,431227,411229,411231,401233,411235,401237,401239,401241,401243,391245,481247,521249,511251,501253,531255,551257,561259,541261,531263,521265,511267,501269,481271,481273,501275,521277,521279,511281,501283,491285,481287,461289,491291,491293,491295,511298,541300,531302,521304,541306,551308,551310,541312,521314,511316,531318,541320,551322,551324,531326,521328,551330,561332,581334,581336,611338,601341,581343,591345,621347,671349,661351,641353,631355,631357,621359,631361,641363,661365,681367,701369,691371,691373,691375,701377,711379,721381,701383,691385,691387,681389,671391,681393,731395,721397,761399,831401,881403,981405,991407,1051409,1081411,1051413,1011415,1011417,981419,951421,941423,961426,941428,951430,941432,931434,921436,911438,891440,871442,841444,811446,781448,751450,721452,701454,671456,651458,631460,611462,581464,571466,551469,531471,521473,511475,501477,491479,481481,461483,461485,461487,471489,461491,461493,451495,451497,481499,531501,601503,641505,641507,661509,781511,801513,801515,891517,1011519,1071521,1111523,1091525,1071527,1061529,1031531,1101533,1151535,1181537,1201539,1381541,1531543,1591545,1751547,1841549,1911551,1891554,1831556,1801558,2081560,2501562,2761564,2721566,2801568,3041570,3271572,3281574,3161576,3131578,3041580,3031582,3191584,3371586,3341588,3781590,4051592,4011594,4231597,4471599,4461601,4321603,4271605,4341607,4211609,4241611,4171613,4051615,4051617,3941619,4071621,4201623,4121625,4211627,4661629,5321631,5561633,5631635,6351637,6881639,6931641,6791643,6791645,6941647,7111649,7011651,6861653,7061655,7011657,6781659,6541661,6291663,6131665,6081667,5951669,6071671,5911673,5771675,5711677,5531679,5391682,5481684,5571686,5481688,5781690,6401692,6471694,6791696,7161698,7011700,7261702,7701704,7661706,7341708,7111710,7061712,7181714,7361716,7471718,7231720,7021722,6741725,6581727,6741729,6721731,7091733,7771735,7831737,8851739,9311741,9311743,9311745,9311747,9311749,9311751,9311753,9311755,9311757,9311759,9311761,9311763,9311765,9311767,9311769,9311771,9311773,9311775,9311777,9311779,9311781,9311783,9311785,9311787,9311789,9311791,9311793,9311795,9311797,9311799,9311801,9311803,9311805,9311807,9311810,9311812,9311814,9311816,9311818,9311820,9311822,9311824,9311826,9311828,9311830,9311832,9311834,9311836,9311838,9311840,9311842,9311844,9311846,9311848,9311850,9311853,9311855,9311857,9311859,9311861,9311863,9311865,9311867,9311869,9311871,9311873,9311875,9311877,9311879,9311881,9311883,9311885,9311887,9311889,9311891,9311893,9311895,9311897,9311899,9311901,9311903,9311905,9311907,9311909,9311911,9311913,9311915,9311917,9311919,9311921,9311923,9311925,9311927,9311929,9311931,9311933,9311935,9311938,9311940,9311942,9311944,9311946,9311948,9311950,9311952,9311954,9311956,9311958,9311960,9311962,9311964,9311966,9311968,9311970,9311972,9311974,9311976,9311978,9311981,9311983,9311985,9311987,9311989,9311991,9321993,9311995,9321997,9321999,9322001,9312003,9312005,9312007,9312009,9312011,9312013,9322015,9312017,9322019,9312021,9312023,9312025,9312027,9312029,9312031,9312033,9312035,9312037,9322039,9322041,9312043,9312045,9312047,9312049,9312051,9312053,9312055,9312057,9312059,9312061,9312063,9312066,9312068,9312070,9312072,9312074,9312076,9312078,9322080,9312082,9312084,9312086,9312088,9322090,9312092,9312094,9312096,9312098,9322100,9312102,9322104,9322106,9322109,9322111,9312113,9312115,9312117,9312119,9312121,9312123,9312125,9312127,9312129,9322131,9312133,9312135,9322137,9312139,9312141,9312143,9322145,9312147,9312149,9312151,9312153,9312155,9312157,9312159,9312161,9312163,9322165,9312167,9312169,9322171,9312173,9312175,9312177,9312179,9312181,9322183,9312185,9322187,9312189,9312191,9322194,9312196,9312198,9322200,9312202,9312204,9312206,9312208,9312210,9312212,9322214,9312216,9312218,9312220,9312222,9322224,9312226,9312228,9322230,9312232,9312234,9312237,9322239,9312241,9312243,9312245,9312247,9312249,9312251,9312253,9312255,9312257,9312259,9312261,9312263,9312265,9312267,9312269,9312271,9312273,9312275,9312277,9312279,9312281,9312283,9312285,9312287,9312289,9312291,9312293,9312295,9312297,9312299,9312301,9312303,9312305,9312307,9312309,9312311,9312313,9312315,9312317,9312319,9312322,9312324,9312326,9312328,9312330,9312332,9312334,9312336,9312338,9312340,9312342,9312344,9312346,9312348,9312350,9312352,9312354,9312356,9312358,9282360,9012362,8792365,8592367,8422369,8292371,8072373,7762375,7782377,7652379,7792381,8732383,8922385,9312387,9182389,9092391,8812393,8432395,8112397,7862399,7562401,7332403,7162405,7012407,6882409,6702411,6452413,6432415,6262417,6252419,6202421,6952423,7172425,8042427,8252429,8052431,7872433,7532435,7222437,7222439,7512441,7422443,7472445,7302447,7022450,6782452,6512454,6252456,6012458,5982460,6152462,6062464,6232466,6102468,5872470,5632472,5382474,5142476,4932478,4732480,4542482,4402484,4942486,5472488,5622490,5992493,6902495,6902497,6622499,6452501,6332503,6282505,6302507,6132509,6012511,5932513,5742515,5552517,5342519,5112521,5022523,4822525,4662527,4592529,4482531,4662533,4792535,4722537,4612539,4702541,4782543,4802545,4732547,4872549,5032551,5252553,5242555,5232557,5142559,5292561,5162563,5112565,5352567,5352569,5572571,5502573,5282575,5102578,5022580,5032582,4882584,4692586,4502588,4642590,4892592,4762594,4962596,5222598,5192600,5112602,5592604,5962606,6162608,6622610,6482612,6302614,6052616,5942618,6042621,5832623,5812625,5902627,5802629,5792631,5742633,5752635,5512637,5522639,5332641,5212643,5242645,5192647,4962649,4972651,5082653,4982655,4932657,4802659,4692661,4732663,4912665,4912667,4972669,4992671,4802673,4972675,5072677,5382679,5722681,5602683,5742685,7142687,7342689,8422691,9032693,8742695,8492697,8172699,7972701,7892703,7642706,7342708,7372710,7192712,7062714,6922716,6812718,6512720,6262722,6172724,6052726,6342728,6892730,6932732,7862734,8062736,7802738,7452740,7202742,6952744,6862746,6732749,6612751,7362753,7392755,8002757,8672759,8442761,8102763,7742765,7462767,7232769,6992771,6752773,6622775,6462777,6252779,6012781,5812783,5682785,5862787,6472789,6672791,6622793,7182795,7302797,7492799,7392801,7812803,7812805,7752807,7792809,8052811,7882813,7612815,7282817,6992819,6772821,6512823,6292825,6192827,6042829,5792831,5582834,5332836,5112838,4882840,4802842,5302844,5572846,5672848,6182850,6052852,5812854,5632856,5492858,5292860,5422862,5542864,5412866,5442868,5322870,5142872,5212874,5362877,5832879,5872881,6222883,6632885,6852887,6722889,6672891,6462893,6222895,5982897,5722899,5522901,5342903,5162905,4992907,4812909,4622911,4432913,4252915,4082917,3962919,3912921,3812923,3732925,3822927,4262929,4532931,4522933,4702935,5162937,5922939,6032941,5882943,5632945,5482947,5472949,5892951,6052953,6162955,6812957,6922959,6722962,6632964,6422966,6242968,6092970,5892972,5722974,5542976,5362978,5172980,4982982,4792984,4602986,4412988,4222990,4042992,3872994,3732996,3602998,3463000,3323002,3203005,3113007,3003009,3183011,3863013,4303015,4413017,5153019,5603021,5483023,5293025,5093027,4893029,4693031,4503033,4323035,4133037,3963039,4013041,4643043,4983045,5103047,5433049,6013051,5913053,5673055,5423057,5213059,5033061,4873063,4713065,4563067,4393069,4223071,4053073,3883075,3713077,3563079,3403081,3253083,3113085,2973087,2853090,2763092,2813094,2893096,2853098,3073100,3173102,3053104,2923106,2823108,2873110,3003112,2943114,3043116,3153118,3073120,3033122,2963124,2873126,2833128,2763130,2643133,2553135,2483137,2433139,2413141,2333143,2283145,2283147,2213149,2123151,2043153,1953155,1873157,1793159,1723161,1653163,1593165,1523167,1463169,1403171,1363173,1303175,1273177,1223179,1193181,1153183,1103185,1063187,1023189,1003191,963193,933195,903197,873199,873201,843203,813205,793207,763209,733211,703213,673215,663218,643220,623222,603224,593226,563228,543230,533232,513234,493236,483238,463240,453242,443244,433246,433248,433250,433252,423254,453256,483258,463261,453263,443265,443267,453269,453271,443273,443275,453277,503279,493281,523283,573285,563287,563289,543291,533293,523295,513297,523299,513301,513303,513305,513307,543309,533311,523313,543315,533317,513319,493321,483323,473325,463327,473329,453331,453333,453335,493337,493339,493341,483343,493346,503348,533350,553352,573354,563356,563358,563360,593362,653364,653366,633368,633370,623372,623374,683376,673378,763380,813382,863384,883386,883389,873391,923393,943395,1053397,1133399,1303401,1363403,1323405,1273407,1233409,1183411,1173413,1133415,1093417,1053419,1013421,973423,953425,943427,1003429,1033431,1013433,1023435,1033437,1023439,1063441,1133443,1263445,1383447,1543449,1533451,1523453,1503455,1463457,1453459,1403461,1383463,1353465,1343467,1333469,1323471,1343474,1323476,1353478,1323480,1353482,1353484,1403486,1393488,1393490,1423492,1533494,1643496,1693498,1643500,1653502,1633504,1613506,1643508,1683510,1663512,1643514,1643517,1603519,1653521,1663523,1713525,1703527,1693529,1673531,1703533,1683535,1613537,1563539,1523541,1503543,1533545,1563547,1553549,1493551,1453553,1483555,1503557,1533559,1523561,1523563,1483565,1453567,1443569,1483571,1463573,1473575,1553577,1533579,1493581,1463583,1413585,1383587,1373589,1403591,1433593,1383595,1333597,1293599,1263602,1213604,1173606,1153608,1153610,1123612,1093614,1063616,1043618,1013620,983622,943624,903626,873628,843630,803632,783634,763636,733638,703640,683642,683645,663647,643649,633651,653653,723655,753657,753659,843661,883663,883665,893667,943669,953671,943673,983675,1203677,1593679,1903681,1913683,2103685,2263687,2263689,2213691,2353693,2513695,2523697,2613699,2533701,2443703,2453705,2403707,2443709,2383711,2353713,2283715,2293717,2243719,2383721,2473723,2563725,2823727,2943730,2883732,2903734,2993736,2983738,3023740,3043742,3013744,3193746,3143748,3083750,3053752,2953754,2883756,2993758,3063760,3143762,3343764,3273766,3203768,3403770,3533773,3423775,3323777,3413779,3883781,4453783,4513785,4933787,5743789,5953791,5923793,5923795,5743797,5713799,5523801,5553803,6043805,6693807,6653809,6733811,7053813,7083815,6963817,6733819,6463821,6283823,6123825,6313827,6223829,6203831,6023833,6153835,6243837,6333839,6823841,7043843,6903845,7153847,7193849,7053851,7523853,8433855,8903858,9143860,9313862,9313864,9313866,9313868,9313870,9303872,9313874,9313876,9313878,9303880,9043882,9163884,8943886,9043888,9303890,9313892,9253894,8943896,8793898,8523901,8743903,9303905,9313907,9303909,9303911,9103913,9013915,9223917,9093919,8883921,8983923,8763925,8803927,8503929,8183931,8373933,8953935,8993937,8693939,8573941,8823943,9023945,9133947,9303949,9303951,9273953,9313955,9313957,9313959,9313961,9313963,9313965,9313967,9313969,9313971,9313973,9313975,9313977,9313979,9313981,9313983,9313986,9313988,9313990,9313992,9313994,9313996,9313998,9314000,9314002,9314004,9314006,9314008,9314010,9314012,9314014,9314016,9314018,9314020,9314022,9314024,9324026,9314029,9314031,9314033,9314035,9314037,9314039,9314041,9314043,9324045,9314047,9314049,9324051,9324053,9324055,9324057,9314059,9314061,9314063,9314065,9314067,9314069,9314071,9314073,9314075,9324077,9324079,9314081,9314083,9314085,9314087,9314089,9314091,9314093,9314095,9314097,9314099,9314101,9314103,9314105,9314107,9314109,9314111,9314114,9314116,9314118,9314120,9314122,9314124,9314126,9314128,9314130,9314132,9314134,9314136,9314138,9314140,9314142,9314144,9314146,9314148,9314150,9314152,9314154,9314157,9314159,9314161,9314163,9314165,9314167,9314169,9314171,9314173,9314175,9314177,9314179,9314181,9314183,9324185,9314187,9324189,9324191,9314193,9314195,9324197,9314199,9314201,9314203,9314205,9324207,9314209,9314211,9314213,9314215,9314217,9314219,9314221,9314223,9314225,9314227,9314229,9314231,9314233,9314235,9314237,9314239,9314242,9314244,9314246,9314248,9314250,9314252,9314254,9314256,9314258,9314260,9314262,9314264,9314266,9314268,9314270,9314272,9314274,9314276,9314278,9314280,9314282,9314285,9314287,9314289,9314291,9314293,9314295,9314297,9314299,9314301,9314303,9314305,9314307,9314309,9314311,9314313,9314315,9314317,9314319,9314321,9314323,9314325,9314327,9314329,9314331,9314333,9314335,9314337,9314339,9314341,9314343,9314345,9314347,9314349,9314351,9314353,9314355,9314357,9314359,9314361,9314363,9314365,9314367,9314370,9314372,9314374,9314376,9314378,9314380,9314382,9314384,9314386,9314388,9314390,9314392,9314394,9314396,9314398,9314400,9314402,9314404,9314406,9314408,9314410,9314413,9314415,9314417,9314419,9314421,9314423,9314425,9314427,9314429,9314431,9314433,9314435,9314437,9304439,9304441,9314443,9314445,9314447,9314449,9314451,9314453,9314455,9314457,9314459,9314461,9304463,9004465,8694467,8464469,8234471,8124473,8364475,8294477,8654479,8504481,8294483,8064485,7824487,7654489,7614491,7394493,7624495,7604498,7694500,8054502,7964504,7694506,7434508,7214510,6974512,6724514,6484516,6524518,6334520,6204522,5954524,5844526,5684528,5664530,5484532,5454534,5244536,5164538,5034541,5104543,4924545,5024547,4944549,4804551,4724553,4724555,4744557,4814559,4884561,4994563,4934565,4954567,4974569,4884571,4724573,4554575,4384577,4214579,4154581,4174583,4154585,4354587,4334589,4164591,4354593,4634595,4554597,4684599,4554601,4384603,4254605,4094607,4294609,4334611,4784613,4844615,4854617,5194619,5214621,5384623,5314626,5404628,5514630,5484632,5514634,5414636,5414638,5224640,5074642,4894644,4934646,4794648,4644650,4614652,4454654,4364656,4284658,4434660,4384662,4594664,4474666,4324669,4164671,4044673,4314675,4214677,4204679,4054681,4224683,4384685,4814687,5594689,5914691,6444693,6214695,6444697,6574699,6554701,6414703,6194705,5984707,5774709,5704711,5694713,5514715,5474717,6064719,6104721,6784723,6944725,6684727,6424729,6214731,5994733,5854735,5734737,5714739,5594741,5454743,5364745,5514747,5704749,5634751,5714754,6204756,6424758,6484760,6784762,6894764,6804766,6644768,6824770,7504772,7484774,8024776,7994778,7674780,7384782,7134784,7014786,6724788,6584790,6724792,6634794,6964797,6994799,6764801,6574803,6944805,7414807,7384809,7914811,7864813,7634815,7414817,7954819,8094821,8244823,8374825,8394827,8284829,8474831,8304833,7984835,7644837,7424839,7344841,7104843,6824845,6614847,6374849,6164851,6034853,5954855,5814857,5794859,5684861,6054863,6384865,6354867,6804869,6794871,6614873,6444875,6224877,6224879,6094882,5864884,5664886,5434888,5204890,4974892,4804894,4724896,4974898,4994900,5044902,5194904,5014906,4814908,4904910,4974912,4994914,5234916,5154918,5104920,4894922,4744925,4814927,4954929,4874931,5024933,4944935,4774937,4814939,5404941,5624943,5804945,6384947,6294949,6054951,5934953,5724955,5504957,5354959,5334961,5144963,5154965,5054967,4974969,4824971,4724973,4714975,4594977,4554979,4404981,4234983,4114985,3954987,3804989,3704991,3664993,3744995,3724997,3614999,3555001,3805003,3815005,4155007,4145010,4275012,4225014,4555016,4645018,4545020,4555022,4415024,4385026,4305028,4415030,4435032,4375034,4475036,4465038,4305040,4115042,3975044,3835046,3675048,3515050,3375053,3255055,3145057,3085059,3065061,3005063,2895065,2785067,2665069,2555071,2545073,2555075,2505077,2885079,3735081,3945083,4365085,4985087,5125089,5145091,5245093,5095095,5045097,4895099,4745101,4605103,4515105,4575107,4925109,5085111,4955113,5085115,5275117,5385119,5365121,5185123,4955125,4755127,4585129,4435131,4275133,4125135,3965138,3805140,3655142,3515144,3415146,3285148,3155150,3035152,2915154,2785156,2705158,2835160,3125162,3285164,3255166,3535168,4015170,4185172,4155174,3995176,3855178,3745181,3645183,3535185,3425187,3305189,3185191,3045193,2975195,2975197,2925199,2855201,2905203,2875205,2755207,2635209,2515211,2415213,2315215,2225217,2125219,2035221,1955223,1905225,1825227,1755229,1675231,1605233,1545235,1485237,1435239,1385241,1325243,1275245,1245247,1195249,1155251,1115253,1075255,1035257,995259,965261,925263,895266,875268,845270,815272,805274,795276,775278,755280,725282,725284,715286,715288,715290,685292,665294,645296,615298,605300,595302,585304,615306,615309,625311,615313,625315,605317,585319,575321,565323,545325,535327,515329,505331,495333,475335,465337,455339,435341,425343,415345,405347,395349,395351,415353,455355,485357,485359,465361,455363,455365,445367,445369,455371,455373,455375,445377,465379,495381,515383,555385,555387,555389,545391,535394,535396,555398,595400,615402,605404,595406,575408,605410,605412,625414,605416,595418,615420,615422,625424,665426,655428,675430,655432,645434,655437,635439,615441,625443,615445,625447,615449,625451,625453,615455,595457,605459,605461,595463,605465,675467,715469,715471,755473,885475,875477,965479,955481,945483,935485,975487,965489,965491,955493,955495,1075497,1075499,1075501,1075503,1075505,1095507,1105509,1185511,1185513,1185515,1215517,1195519,1185522,1205524,1215526,1245528,1255530,1215532,1215534,1215536,1225538,1185540,1175542,1165544,1145546,1105548,1095550,1065552,1045554,1015556,975558,955560,935562,925565,925567,955569,975571,935573,915575,915577,925579,925581,945583,965585,965587,965589,995591,1045593,1055595,1035597,1035599,1015601,975603,945605,915607,925609,955611,935613,915615,875617,845619,815621,785623,765625,735627,715629,695631,665633,655635,685637,675639,685641,705643,735645,725647,735650,735652,715654,695656,675658,645660,625662,605664,585666,565668,565670,555672,545674,535676,535678,535680,645682,825684,915686,975688,1215690,1415693,1395695,1395697,1465699,1605701,1695703,1665705,1785707,1975709,2075711,2045713,1965715,1955717,1955719,1915721,1855723,1805725,1925727,2425729,3115731,3415733,3615735,4005737,4895739,5095741,4975743,5035745,5005747,4805749,4695751,4915753,5095755,5165757,5685759,5805761,5575763,5375765,5155767,5055769,4945771,4855773,5235775,5735778,5725780,5835782,6185784,6285786,6145788,6145790,6055792,5935794,6235796,6405798,6195800,6025802,5935804,5825806,5745808,5785810,5975812,6275814,6215816,6195818,6425821,6775823,7215825,7175827,7225829,7555831,7825833,7665835,7675837,7885839,7795841,8205843,8455845,8485847,9085849,9065851,8905853,8665855,8675857,8445859,8855861,9315863,9315865,9315867,9315869,9315871,9315873,9315875,9315877,9305879,9305881,9305883,9165885,9315887,9315889,9315891,9315893,9315895,9315897,9315899,9315901,9315903,9315906,9305908,9015910,9315912,9315914,9315916,9315918,9315920,9315922,9315924,9315926,9315928,9315930,9315932,9315934,9315936,9315938,9315940,9315942,9315944,9315946,9315949,9315951,9315953,9315955,9315957,9315959,9315961,9315963,9315965,9315967,9315969,9315971,9315973,9315975,9315977,9315979,9315981,9315983,9315985,9315987,9315989,9315991,9315993,9315995,9315997,9315999,9316001,9316003,9316005,9316007,9316009,9316011,9316013,9316015,9316017,9316019,9316021,9316023,9316025,9316027,9316029,9316031,9316034,9316036,9316038,9316040,9316042,9316044,9316046,9316048,9316050,9316052,9316054,9316056,9316058,9316060,9326062,9316064,9316066,9316068,9316070,9316072,9316074,9316077,9316079,9326081,9316083,9316085,9316087,9326089,9316091,9316093,9326095,9316097,9316099,9316101,9316103,9316105,9316107,9316109,9326111,9316113,9316115,9316117,9326119,9316121,9326123,9326125,9316127,9316129,9316131,9316133,9316135,9316137,9316139,9316141,9326143,9316145,9316147,9316149,9316151,9316153,9326155,9316157,9316159,9316162,9316164,9316166,9316168,9316170,9316172,9316174,9316176,9316178,9316180,9316182,9326184,9316186,9316188,9316190,9316192,9316194,9316196,9316198,9316200,9316202,9316205,9316207,9316209,9316211,9316213,9326215,9316217,9316219,9316221,9326223,9326225,9316227,9316229,9316231,9316233,9316235,9316237,9326239,9326241,9316243,9326245,9316247,9316249,9316251,9316253,9316255,9316257,9316259,9316261,9316263,9316265,9316267,9316269,9316271,9316273,9316275,9316277,9316279,9316281,9316283,9316285,9316287,9316290,9316292,9316294,9316296,9316298,9316300,9316302,9316304,9316306,9316308,9316310,9316312,9316314,9316316,9316318,9316320,9316322,9316324,9316326,9316328,9316330,9316333,9316335,9316337,9316339,9316341,9316343,9316345,9316347,9316349,9316351,9316353,9316355,9316357,9316359,9316361,9316363,9316365,9316367,9316369,9316371,9316373,9316375,9316377,9316379,9316381,9316383,9316385,9316387,9316389,9316391,9316393,9316395,9316397,9316399,9316401,9316403,9316405,9316407,9316409,9316411,9316413,9316415,9316418,9316420,9316422,9316424,9316426,9316428,9316430,9316432,9316434,9316436,9316438,9316440,9316442,9316444,9316446,9316448,9316450,9316452,9316454,9316456,9316458,9316461,9316463,9316465,9316467,9316469,9316471,9316473,9316475,9316477,9316479,9316481,9316483,9316485,9316487,9316489,9316491,9316493,9316495,9316497,9316499,9316501,9316503,9316505,9316507,9316509,9316511,9316513,9316515,9316517,9096519,8676521,8466523,8296525,8186527,8306529,8966531,9276533,9316535,9316537,9306539,8966541,8616543,8286546,8066548,8176550,7996552,7896554,7586556,7276558,7086560,6816562,6596564,6356566,6136568,5906570,5646572,5406574,5216576,5006578,4976580,4836582,4956584,4916586,4856589,4876591,4706593,4706595,4696597,4646599,4656601,4766603,4646605,4526607,4866609,5276611,5196613,5776615,6226617,6026619,5796621,5576623,5466625,5296627,5246629,5066631,5066633,5126635,4986637,4886639,5056641,4876643,4896645,5036647,5056649,5286651,5176653,5146655,5156657,5546659,5516661,5406663,5236665,5226667,5076669,4956671,4826674,4706676,4716678,4596680,4506682,4326684,4216686,4136688,4036690,3986692,3876694,3906696,3976698,3936700,3996702,4216704,4386706,4536708,4456710,4446712,4626714,4696717,4616719,4666721,4726723,4586725,4486727,4406729,4426731,4346733,4426735,4456737,4476739,4316741,4376743,4276745,4146747,4016749,3846751,3716753,3596755,3606757,3856759,3906761,3896763,4086765,4426767,4646769,5106771,5536773,5616775,6016777,5956779,5896781,5696783,5456785,5246787,5546789,5696791,5586793,5406795,5246797,5346799,5246802,5166804,5216806,5036808,4986810,5056812,4896814,4686816,4686818,4616820,4586822,4556824,4436826,4316828,4136830,4056832,4006834,3876836,3736838,3986840,4326842,4576845,5386847,5696849,5536851,5326853,5506855,5896857,6096859,6156861,6506863,6736865,6616867,6586869,6686871,6706873,6676875,6686877,6506879,6316881,6136883,6036885,5826887,5756889,5686891,5566893,5496895,5696897,5536899,5606901,5636903,5406905,5226907,5026909,4826911,4616913,4556915,4546917,4396919,4266921,4166923,4026925,4106927,4226930,4166932,4196934,4286936,4316938,4306940,4266942,4126944,4006946,4046948,4136950,4156952,4036954,3976956,4016958,4056960,3906962,3746964,3616966,3676968,4046970,4166973,4156975,4866977,5256979,5966981,7296983,7606985,7376987,7136989,6946991,6696993,6616995,6516997,6406999,6447001,6397003,6197005,6227007,6087009,5817011,5597013,5357015,5247017,5037019,4837021,4727023,4817025,5207027,5417029,5517031,6047033,6167035,5917037,5667039,5497041,5347043,5167045,5117047,5017049,5027051,5517053,6557055,6717058,7527060,8677062,8687064,8447066,8077068,7717070,7387072,7077074,6767076,6477078,6227080,6007082,5867084,5727086,5497088,5267090,5057092,4827094,4647096,4467098,4277101,4107103,3937105,3767107,3617109,3487111,3667113,4477115,4977117,5227119,6297121,6817123,6607125,6377127,6137129,5877131,5617133,5407135,5287137,5187139,4997141,4857143,4767145,4677147,4667149,4557151,4427153,4467155,4457157,4317159,4137161,3977163,3837165,3717167,3597169,3467171,3317173,3187175,3117177,3167179,3277181,3287183,3147186,3017188,2907190,3047192,3427194,3637196,3547198,3427200,3337202,3267204,3187206,3097208,3007210,2917212,2847214,2797216,2687218,2647220,2577222,2477224,2377226,2287229,2197231,2107233,2027235,1967237,1907239,1837241,1817243,1777245,1707247,1637249,1567251,1517253,1457255,1407257,1367259,1317261,1257263,1207265,1167267,1147269,1107271,1087273,1047275,1017277,967279,937281,907283,897285,867287,847289,817291,787293,797295,777297,807299,797301,767303,747305,737307,717309,697311,677314,667316,647318,627320,627322,637324,627326,617328,607330,597332,587334,587336,627338,667340,667342,717344,777346,767348,747350,727352,717354,717357,727359,737361,757363,747365,747367,737369,767371,757373,727375,707377,687379,657381,647383,647385,647387,637389,617391,597393,577395,577397,557399,547401,527403,547405,567407,657409,647411,647413,637415,717417,717419,727421,797423,827425,887427,907429,917431,937433,967435,997437,977439,1007442,1017444,1097446,1157448,1127450,1087452,1047454,1057456,1047458,1047460,1057462,1097464,1107466,1127468,1127470,1197472,1187474,1177476,2587478,2677480,2807482,2797485,2847487,2787489,2867491,2877493,2777495,2677497,2657499,2747501,2657503,2567505,2487507,2417509,2347511,2307513,2247515,2147517,2087519,2037521,2017523,1947525,2047527,2037529,2077531,2027533,2027535,1947537,1967539,2017541,1947543,1997545,2047547,2117549,2107551,2037553,2047555,1997557,1997559,1957561,2057563,2087565,2097567,2107570,2057572,2017574,2007576,1997578,1927580,1887582,1837584,1827586,1787588,1747590,1827592,1857594,1907596,1937598,1907600,2227602,2337604,2557606,2517608,2437610,2357613,2297615,2207617,2137619,2087621,2047623,2037625,1957627,1937629,1877631,1847633,1917635,1857637,1797639,1757641,1707643,1667645,1617647,1587649,1577651,1557653,1497655,1467657,1437659,1427661,1397663,1347665,1307667,1267669,1227671,1207673,1187675,1177677,1167679,1127681,1207683,1317685,1287687,1287689,1307691,1287693,1327695,1307698,1277700,1257702,1217704,1207706,1197708,1167710,1147712,1127714,1077716,1037718,997720,957722,927724,887726,857728,827730,797732,777734,767736,747738,717741,687743,667745,647747,667749,677751,657753,647755,747757,877759,887761,1027763,1187765,1187767,1277769,1257771,1287773,1337775,1317777,1387779,1647781,1997783,2167785,2287787,2497789,3157791,3587793,3537795,3507797,3377799,3227801,3087803,2967805,2987807,3257809,3557811,3537813,3877815,4377817,4407819,4437821,4567823,4817826,4997828,4877830,4887832,5037834,4907836,4797838,4817840,4687842,4527844,4357846,4287848,4277850,4237852,4077854,4137856,4417858,4647860,4587862,4397864,4207866,4037869,4027871,4077873,3967875,3907877,4387879,5157881,5367883,5267885,5317887,5237889,5877891,6817893,7117895,6987897,6757899,6567901,6307903,6177905,6327907,6647909,6587911,6557913,6827915,6887917,6737919,6847921,7067923,7047925,6827927,6897929,6947931,6747933,6967935,7797937,7847939,8467941,9307943,9317945,9307947,9127949,8757951,8657954,8787956,8707958,8437960,8367962,8367964,8957966,9087968,9307970,9317972,9317974,9317976,9317978,9317980,9317982,9317984,9307986,9107988,8947990,9027992,8747994,8787997,8817999,8528001,8588003,9108005,9278007,9158009,9318011,9318013,9318015,9318017,9318019,9318021,9318023,9318025,9318027,9318029,9318031,9318033,9318035,9318037,9318039,9318041,9318043,9318045,9318047,9318049,9318051,9318053,9318055,9318057,9318059,9318061,9318063,9318065,9318067,9318069,9318071,9318073,9318075,9318077,9318079,9318082,9318084,9318086,9318088,9318090,9318092,9318094,9318096,9318098,9318100,9318102,9318104,9318106,9318108,9318110,9318112,9318114,9318116,9318118,9318120,9318122,9318125,9318127,9318129,9318131,9318133,9318135,9318137,9318139,9318141,9318143,9328145,9318147,9318149,9318151,9318153,9318155,9318157,9318159,9318161,9318163,9318165,9318167,9318169,9318171,9318173,9318175,9318177,9318179,9318181,9318183,9318185,9318187,9318189,9318191,9318193,9318195,9318197,9318199,9318201,9318203,9318205,9318207,9318210,9318212,9318214,9318216,9318218,9318220,9318222,9318224,9318226,9318228,9318230,9318232,9318234,9318236,9318238,9318240,9318242,9318244,9318246,9318248,9318250,9318253,9318255,9328257,9318259,9318261,9318263,9318265,9328267,9328269,9318271,9328273,9318275,9318277,9318279,9318281,9328283,9318285,9328287,9318289,9318291,9318293,9328295,9318297,9318299,9318301,9318303,9318305,9318307,9318309,9318311,9318313,9318315,9318317,9318319,9318321,9318323,9318325,9318327,9318329,9318331,9318333,9318335,9318338,9318340,9318342,9318344,9318346,9318348,9318350,9318352,9318354,9318356,9318358,9318360,9318362,9318364,9318366,9318368,9318370,9318372,9318374,9318376,9318378,9318381,9318383,9318385,9318387,9318389,9318391,9318393,9318395,9318397,9318399,9318401,9318403,9318405,9318407,9318409,9318411,9318413,9318415,9318417,9318419,9318421,9318423,9318425,9318427,9318429,9318431,9318433,9318435,9318437,9318439,9318441,9318443,9318445,9318447,9318449,9318451,9318453,9318455,9318457,9318459,9318461,9318463,9318466,9318468,9318470,9318472,9318474,9318476,9318478,9318480,9318482,9318484,9318486,9318488,9318490,9318492,9318494,9318496,9318498,9318500,9318502,9318504,9318506,9318509,9318511,9318513,9318515,9318517,9318519,9318521,9098523,8778525,9318527,9318529,9318531,9318533,9318535,9318537,9318539,9318541,9318543,9318545,9318547,9298549,8918551,8808553,8498555,8178557,7948559,7968561,7828563,7538565,7348567,7048569,6868571,6928573,7208575,7238577,7158579,6878581,6768583,6598585,6608587,6418589,6178591,5918594,5688596,5458598,5358600,5238602,5168604,5078606,5218608,5118610,5258612,5098614,4928616,4718618,4558620,4428622,4268624,4128626,3968628,3958630,3888632,4038634,4038637,3878639,3718641,3668643,3648645,3498647,3348649,3298651,3338653,3438655,3448657,4018659,4118661,4278663,4518665,4468667,4368669,4228671,4058673,3928675,3788677,3658679,3588681,3878683,4538685,4788687,5658689,5818691,5588693,5478695,5408697,5288699,5248701,5418703,5338705,5278707,5138709,5138711,4988713,4888715,4778717,4588719,4488722,4428724,4258726,4098728,3918730,3758732,3668734,3608736,3488738,3498740,3568742,3808744,3968746,3888748,3928750,3978752,4278754,4368756,4278758,4158760,4098762,3948765,3808767,3718769,3658771,3588773,3608775,3548777,3528779,3458781,3368783,3298785,3398787,3488789,3518791,3838793,4008795,4268797,4248799,4258801,4098803,3978805,3978807,3938809,3768811,3928813,3908815,3848817,3918819,4088821,4358823,4318825,4518827,4588829,4518831,4668833,5008835,5008837,5408839,5368841,5488843,5428845,5218847,5188850,5138852,5478854,5528856,5388858,5198860,4968862,4808864,4748866,4578868,4438870,4308872,4238874,4108876,4098878,4018880,3898882,3968884,4228886,4218888,4038890,3958893,3908895,4248897,4378899,5428901,6218903,6258905,6288907,6168909,6228911,6018913,5828915,5578917,5398919,6728921,6598923,6398925,6248927,6058929,5838931,5688933,5488935,5438937,5498939,5658941,5668943,5738945,5558947,5458949,5368951,5288953,5328955,5158957,5248959,5348961,5278963,5108965,5068967,5648969,5648971,5928973,5848975,5808978,5988980,6208982,6068984,6028986,6148988,6498990,6408992,6778994,6838996,6648998,6399000,6139002,5909004,5729006,5569008,5459010,5419012,5449014,5459016,5459018,5749021,5739023,5699025,5589027,5689029,5739031,5589033,5539035,5469037,5519039,5839041,5849043,5649045,5539047,5439049,5449051,5459053,5579055,5469057,5499059,5689061,5599063,5589065,5439067,5449069,5399071,5209073,5039075,4849077,4669079,4499081,4339083,4439085,4629087,4549089,4589091,4619093,4459095,4299097,4189099,4029101,3939103,4179106,4649108,4629110,5039112,5409114,5409116,5339118,5179120,5199122,5199124,5039126,5109128,5189130,5019132,4799134,4619136,4459138,4329140,4219142,4119144,4019146,3889149,3739151,3579153,3439155,3319157,3289159,3609161,4079163,4119165,4799167,5359169,5329171,5299173,5099175,4929177,4799179,4609181,4519183,4439185,4289187,4199189,4049191,3989193,4179195,4599197,4599199,5109201,5549203,5409205,5179207,4959209,4769211,4599213,4449215,4289217,4129219,3979221,3829223,3689225,3529227,3379229,3229231,3089234,2959236,2829238,2709240,2589242,2479244,2379246,2279248,2179250,2099252,2029254,2209256,2429258,2429260,2739262,3009264,3009266,2879268,2759270,2649272,2549274,2449277,2369279,2289281,2199283,2119285,2039287,1959289,1879291,1819293,1759295,1689297,1619299,1549301,1489303,1429305,1369307,1309309,1269311,1219313,1179315,1129317,1129319,1139321,1119323,1119325,1079327,1049329,1029331,1019333,989335,1009337,1019339,1009341,989343,1019345,999347,969349,929351,1079353,1089355,1119357,1109359,1089362,1099364,1099366,1069368,1079370,1099372,1059374,1089376,1109378,1069380,1049382,1019384,1019386,989388,949390,929392,919394,889396,859398,829400,809402,809405,839407,849409,849411,819413,789415,789417,789419,829421,819423,849425,859427,859429,899431,909433,949435,939437,999439,1029441,1079443,1089445,1079447,1069449,1029451,1009453,999455,959457,919459,939461,929463,899465,949467,1009469,1029471,1089473,1079475,1079477,1049479,1009481,1009483,1069485,1099487,1159490,1229492,1229494,1269496,1259498,1349500,1379502,1439504,1409506,1479508,1569510,1659512,1669514,1619516,1579518,1539520,1519522,1489524,1459526,1439528,1399530,1369533,1479535,1459537,1409539,1359541,1379543,1459545,1419547,1499549,1499551,1509553,1599555,1569557,1569559,1569561,1609563,1759565,1759567,1889569,1829571,1809573,1899575,1929577,2119579,2199581,2149583,2089585,2099587,2059589,1999591,1929593,1889595,1919597,2029599,2039601,2029603,2049605,2049607,2059609,2029611,1979613,1949615,1929618,1909620,1919622,1929624,1879626,1829628,1829630,1879632,1839634,1929636,2009638,2039640,1989642,1939644,1879646,1849648,1799650,1769652,1729654,1739656,1689658,1769661,1739663,1679665,1679667,1629669,1569671,1559673,1559675,1519677,1489679,1529681,1539683,1519685,1509687,1479689,1429691,1369693,1329695,1299697,1249699,1209701,1159703,1139705,1099707,1089709,1079711,1089713,1059715,1019717,989719,979721,959723,969725,979727,1009729,1029731,999733,969735,939737,909739,879741,839743,809746,779748,749750,729752,699754,679756,649758,629760,609762,589764,569766,579768,569770,559772,539774,519776,509778,499780,499782,489784,489786,469789,469791,459793,469795,519797,569799,639801,719803,729805,769807,939809,1109811,1119813,1139815,1129817,1189819,1309821,1839823,2299825,2439827,3139829,3649831,3679833,3629835,3739837,3859839,3819841,3689843,3659845,3649847,3639849,3529851,3569853,3689855,3639857,3559859,3639861,3799863,3869865,3759867,3679869,3599871,3669874,3759876,3729878,3679880,3559882,3569884,3499886,3409888,3429890,3359892,3459894,3429896,3509898,3809900,3939902,3879904,3969906,3959908,3829910,3989912,4199914,4169917,4209919,4119921,4039923,3989925,3919927,3969929,4009931,3869933,3789935,3719937,3829939,4489941,5239943,5299945,5749947,6379949,6709951,6559953,6459955,6409957,6229959,6239961,6149963,6469965,6599967,6459969,6379971,6129973,6159975,6179977,6709979,6749981,7209983,8149985,8439987,8219989,8319991,8679993,9059995,8869997,9099999,91510002,90110004,92310006,91210008,89310010,89910012,89610014,93110016,93110018,93110020,93110022,93110024,93110026,93110028,93110030,93110032,93110034,93110036,93110038,93110040,93110042,93110045,93110047,93110049,93110051,93110053,93110055,93110057,93110059,93110061,93110063,93110065,93110067,93110069,93110071,93110073,93110075,93110077,93110079,93110081,93110083,93110085,93110087,93110089,93110091,93110093,93110095,93110097,93110099,93110101,93110103,93110105,93110107,93110109,93110111,93110113,93110115,93110117,93110119,93110121,93110123,93110125,93110127,93110130,93110132,93110134,93110136,93110138,93110140,93110142,93110144,93110146,93110148,93110150,93110152,93110154,93110156,93110158,93110160,93110162,93110164,93110166,93110168,93110170,93110173,93110175,93110177,93110179,93110181,93110183,93110185,93110187,93110189,93110191,93110193,93110195,93110197,93110199,93110201,93210203,93110205,93110207,93210209,93110211,93110213,93110215,93110217,93110219,93110221,93110223,93210225,93110227,93110229,93110231,93110233,93110235,93110237,93110239,93110241,93110243,93110245,93210247,93110249,93110251,93110253,93110255,93110258,93110260,93110262,93110264,93110266,93110268,93110270,93110272,93110274,93110276,93110278,93110280,93110282,93110284,93110286,93210288,93110290,93110292,93110294,93110296,93110298,93110301,93110303,93110305,93110307,93110309,93110311,93110313,93110315,93110317,93110319,93110321,93110323,93110325,93210327,93110329,93110331,93110333,93210335,93110337,93110339,93110341,93110343,93110345,93110347,93110349,93110351,93110353,93110355,93110357,93110359,93110361,93110363,93110365,93210367,93110369,93110371,93110373,93110375,93110377,93110379,93110381,93210383,93210386,93210388,93110390,93110392,93110394,93210396,93110398,93110400,93110402,93110404,93210406,93210408,93110410,93110412,93110414,93110416,93110418,93110420,93210422,93110424,93110426,93210429,93210431,93210433,93110435,93110437,93110439,93110441,93110443,93110445,93110447,93110449,93210451,93110453,93110455,93110457,93110459,93110461,93210463,93110465,93110467,93110469,93110471,93110473,93210475,93210477,93110479,93110481,93110483,93110485,93110487,93110489,93110491,93210493,93110495,93110497,93110499,93110501,93110503,93110505,93110507,93110509,93110511,93210514,93110516,93110518,93110520,93110522,93110524,93110526,93110528,93110530,93110532,93110534,93110536,93110538,93110540,93110542,93110544,93110546,93110548,93110550,93110552,93110554,93110557,93110559,93110561,93110563,93110565,93110567,93110569,93110571,93110573,93110575,93110577,93110579,93110581,93110583,93110585,93110587,93110589,93110591,93110593,93110595,93110597,93110599,93110601,93110603,93110605,93110607,93110609,93110611,93110613,93110615,93110617,93110619,93110621,93110623,93110625,93110627,93110629,93010631,93110633,93110635,93110637,93110639,93110642,93110644,93110646,93110648,93110650,93110652,93110654,93110656,93110658,93110660,93110662,93110664,93110666,93110668,93110670,93110672,93110674,93110676,93110678,93110680,93110682,93110685,93110687,93010689,93010691,91110693,87510695,84110697,83210699,82310701,81810703,84610705,82710707,81110709,78010711,74510713,73310715,77010717,81310719,81710721,87210723,88110725,88410727,86910729,83210731,81310733,81410735,78710737,76710739,74210741,71110743,68210745,65410747,62710749,62210751,60910753,59510755,59410757,62810759,70210761,75510763,85510765,85310767,82210770,80510772,78010774,77310776,75010778,73610780,76310782,75410784,78610786,78010788,79710790,80010792,77610794,78010796,75610798,72610800,69910802,67310804,68410806,70310808,70110810,70510813,71210815,77110817,78710819,75710821,72810823,69710825,66910827,64210829,61610831,59110833,56810835,58910837,60110839,60010841,62910843,61010845,58510847,56410849,56410851,59210853,59410855,60610857,63710859,65810861,64710863,63510865,64010867,61510869,60310871,61010873,60210875,59310877,58210879,59010881,58410883,57410885,54910887,52810889,50510891,49110893,47310895,46610898,50510900,50110902,51410904,52310906,52710908,57910910,60010912,64710914,71210916,71510918,74710920,72010922,72710924,72210926,73010928,72010930,72810932,72410934,73010936,71910938,70810941,69110943,67910945,65410947,62810949,60710951,59510953,57310955,55810957,54110959,52310961,51010963,48910965,47210967,53610969,57510971,57210973,59610975,65110977,70810979,70210981,70610983,69910985,67710987,66610989,65010991,64210993,62810995,62010997,59810999,62711001,62911003,66811005,73411007,72111009,71011011,69711013,67211015,65011017,62911019,60311021,57911023,59011026,65711028,72911030,75611032,84311034,93111036,93111038,93111040,93111042,93111044,93111046,92811048,88711050,85311052,83711054,86611056,86511058,83411060,84911062,83511064,88511066,93011069,92911071,88911073,85011075,82111077,79811079,77511081,75611083,75311085,75911087,75211089,72511091,72011093,72511095,71911097,69111099,66511101,67111103,71811105,73311107,76411109,80611111,81011113,80311115,78811117,76611119,74511121,74311123,75011125,73211127,70411129,67711131,66111133,63711135,61511137,61011139,59811141,59611143,64611145,65611147,67811149,73211151,71711154,69011156,66411158,63511160,61011162,58811164,56511166,54211168,52811170,55111172,59211174,58611176,60311178,60611180,58911182,58211184,57911186,60311188,60411190,58411192,56411194,54911197,53011199,52011201,51511203,53511205,53211207,52411209,53311211,52611213,50911215,49611217,48111219,46411221,45911223,45011225,43411227,42311229,42411231,47411233,52611235,52711237,59411239,63211241,65211243,63411245,64411247,66211249,65611251,64211253,64911255,65411257,65111259,63011261,62511263,63811265,69211267,74611269,74111271,80311273,88111275,88711277,85111279,81311282,77711284,74811286,72311288,69911290,67411292,65111294,62711296,60411298,58111300,55911302,53511304,51111306,48911308,48011310,47911312,46911314,48011316,54411318,58511320,58211322,61911325,65211327,68711329,72011331,71011333,68311335,66111337,65911339,64311341,65111343,66211345,64511347,64111349,62211351,61311353,59011355,57211357,54911359,52711361,50711363,48511365,46411367,45411369,43611371,41911373,40211375,38511377,36911379,35311381,33711383,32211385,30811387,29511389,28211391,27011393,25811395,24711397,23911399,23211401,22211403,21911405,21611407,20811410,19911412,19111414,18311416,17511418,16811420,16111422,15411424,14811426,14211428,13611430,13011432,12511434,12011436,11511438,11111440,10611442,10211444,9811446,9411448,9011450,8711453,8411455,8111457,7811459,7511461,7411463,7111465,6911467,6611469,6511471,6411473,6211475,6011477,5911479,5811481,5711483,5611485,5411487,5411489,5511491,5411493,5411495,5311497,5111499,5011501,4811503,4711505,4711507,4911509,5111511,5011513,5111515,5611517,5811519,5811521,5711523,5611525,5611527,5511529,5711531,6211533,6711535,6511538,6511540,6411542,6411544,6811546,6911548,7211550,7111552,7111554,6911556,6811558,6711560,6511562,13811564,18411566,19011568,18411570,18211572,17811574,19211576,22511578,24611581,23811583,22911585,22811587,23211589,23111591,24311593,26611595,26411597,25711599,25811601,25411603,24711605,24511607,24611609,25411611,24611613,23711615,23011617,22511619,22411621,21911623,21611625,20911627,20311629,20211631,19811633,19111635,19511637,19711639,19611641,19311643,18811645,18511647,19211649,19111651,18311653,17711655,17111657,17411659,17211661,16511663,16311666,17111668,18011670,18111672,17611674,17411676,16811678,17011680,17411682,17111684,16611686,15911688,15911690,15411692,15011694,14511696,14211698,13811700,13911702,14311704,15511706,15411709,15411711,15611713,15411715,15711717,16711719,16611721,17111723,16711725,16611727,17011729,17311731,31911733,32311735,33511737,33611739,33411741,34211743,33911745,33111747,32811749,32411751,32111753,30811755,30911757,30911759,29511761,29011763,29411765,28411767,27411769,26411771,25511773,24711775,24511777,23811779,23011781,22411783,21511785,20611787,20111789,20911791,20511794,20311796,21111798,20611800,20111802,19811804,19211806,18811808,19311810,19011812,18611814,19111816,18711818,18011820,17311822,16711824,16411826,16011828,15511830,14811832,14211834,13711837,13311839,12911841,12411843,13011845,13811847,14411849,14311851,13911853,13311855,12811857,12611859,13111861,13411863,13311865,13011867,13311869,13111871,13011873,13311875,13111877,13511879,14111881,14211883,14311885,14811887,14911889,15811891,18311893,19411895,19611897,20411899,21011901,21611903,23011905,28511907,32311909,31811911,32111913,32311915,32211917,33911919,36911922,37011924,38211926,39211928,38211930,37311932,37011934,38611936,39711938,39411940,38111942,37911944,37611946,36711948,35211950,34911952,37111954,38211956,38611958,42311960,43111962,41911965,40811967,40411969,41111971,43311973,43711975,42011977,40411979,40411981,40811983,40011985,41311987,41211989,43911991,47211993,47011995,45611997,44811999,43312001,43212003,42112005,43212007,42612009,44212011,46112013,45112015,45912017,44712019,45912021,48612023,48412025,48412027,51012029,51412031,52412033,54812035,54012037,59012039,63812041,63312043,64812045,63212047,64312050,63012052,63912054,67812056,71812058,70412060,70612062,71712064,70012066,68412068,69712070,70812072,69412074,72412076,73412078,72612080,75212082,73912084,74112086,73612088,71612090,71512093,69612095,68912097,70812099,70212101,68912103,69512105,67612107,67612109,73412111,78512113,77612115,82212117,90112119,93112121,92012123,92212125,91712127,88312129,84712131,82712133,82612135,82512137,80612139,82012141,86812143,90712145,89912147,87612149,87712151,87012153,86712155,86812157,84112159,81612161,78712163,79012165,78412167,81612169,81512171,84212173,90512175,89312178,90612180,93012182,93112184,93112186,93112188,93112190,93112192,93112194,93112196,93112198,93112200,93112202,93112204,93112206,93112208,93112210,93112212,93112214,93112216,93112218,93112221,93112223,93112225,93112227,93112229,93112231,93112233,93112235,93112237,93112239,93112241,93112243,93112245,93112247,93112249,93112251,93112253,93112255,93112257,93112259,93112261,93112263,93112265,93112267,93112269,93112271,93112273,93112275,93112277,93112279,93112281,93112283,93112285,93112287,93112289,93112291,93112293,93112295,93112297,93112299,93112301,93112303,93112306,93112308,93112310,93112312,93112314,93112316,93112318,93112320,93112322,93112324,93212326,93112328,93112330,93112332,93112334,93112336,93112338,93112340,93112342,93112344,93112346,93112349,93112351,93112353,93112355,93112357,93112359,93112361,93112363,93112365,93112367,93212369,93112371,93212373,93212375,93112377,93112379,93112381,93112383,93112385,93112387,93112389,93112391,93112393,93212395,93112397,93112399,93112401,93112403,93112405,93212407,93112409,93112411,93112413,93112415,93112417,93112419,93112421,93112423,93112425,93112427,93112429,93112431,93112434,93112436,93112438,93112440,93112442,93112444,93112446,93112448,93112450,93112452,93112454,93112456,93112458,93112460,93112462,93112464,93112466,93212468,93112470,93112472,93112474,93112477,93112479,93112481,93112483,93112485,93112487,93112489,93112491,93112493,93112495,93212497,93112499,93112501,93112503,93212505,93112507,93112509,93212511,93112513,93112515,93212517,93212519,93212521,93112523,93212525,93112527,93212529,93112531,93112533,93112535,93112537,93112539,93112541,93112543,93112545,93112547,93112549,93212551,93112553,93112555,93112557,93212559,93212562,93212564,93212566,93212568,93212570,93112572,93112574,93212576,93112578,93112580,93112582,93112584,93112586,93212588,93212590,93112592,93112594,93112596,93212598,93212600,93112602,93112605,93112607,93112609,93112611,93112613,93112615,93112617,93112619,93112621,93112623,93112625,93112627,93112629,93112631,93112633,93112635,93112637,93112639,93112641,93112643,93112645,93112647,93112649,93112651,93112653,93112655,93112657,93112659,93112661,93112663,93112665,93112667,93112669,93112671,93112673,93112675,93212677,93212679,93112681,93112683,93212685,93112687,93212690,93112692,93112694,93112696,93112698,93112700,93112702,93112704,93112706,93112708,93112710,93112712,93112714,93112716,93112718,93112720,93112722,93112724,93112726,93112728,93112730,93112733,93112735,93112737,93112739,93112741,93112743,93112745,93112747,93112749,93112751,93112753,93112755,93112757,93112759,93112761,93112763,93112765,93112767,93112769,93112771,93112773,93112775,93112777,91812779,88712781,85012783,82112785,79012787,76312789,80412791,86612793,93112795,93112797,93112799,93112801,93112803,93112805,93112807,93112809,93112811,93112813,93112815,93112818,93112820,93012822,90812824,87112826,83112828,79612830,76312832,73112834,70112836,68012838,65412840,63112842,61112844,62512846,62112848,64712850,64912852,62912854,61012856,59612858,57812861,56812863,58612865,58112867,60512869,62612871,61212873,65412875,65312877,64512879,63212881,60812883,58612885,56412887,54412889,52312891,50812893,49312895,48612897,46712899,45112901,43212903,42412905,40912907,42812909,42612911,45212913,46312915,47512917,48612919,50212921,51112923,50512925,51012927,50012929,48212931,50612933,52812935,53012937,55812939,60312941,60112943,57712946,56212948,53812950,51812952,51312954,49912956,48812958,47612960,45612962,44512964,42812966,44512968,46012970,48312972,50112974,51412976,59312978,61012980,59012982,57312984,55312986,53112989,55312991,57512993,56712995,57712997,56912999,55713001,57413003,57213005,56013007,53613009,52913011,51013013,49413015,47713017,45813019,44313021,44913023,46713025,45613027,45213029,44513031,44313033,45313035,46713037,46013039,48413041,56013043,57013045,65513047,66913049,64513051,62813053,60213055,59013057,58113059,58213061,56113063,53813065,52513067,51213069,51113071,50913074,52013076,55113078,68113080,67513082,66513084,64613086,62013088,60513090,62713092,65013094,67913096,72613098,89713100,93113102,93113104,93113106,93113108,93013110,89113112,85413114,82113117,79813119,76713121,80113123,87913125,88913127,93113129,93113131,93113133,93113135,93113137,93113139,93113141,93113143,91913145,89713147,86513149,85213151,82613153,81813155,82013157,79913159,80013161,79213163,82013165,80913167,83813169,85513171,84013173,81313175,80913177,82013179,93113181,93113183,93113185,93113187,93113189,93113191,93113193,93113195,93113197,93113199,93113202,93113204,92613206,88713208,85113210,81313212,77713214,74913216,76713218,79513220,77513222,79213224,81713226,80313228,77913230,78313232,76213234,77613236,78013238,75313240,73013242,73313245,74413247,72213249,72413251,71313253,70813255,72313257,69813259,67713261,68713263,68913265,70013267,68613269,66513271,64213273,62113275,62113277,64813279,63813281,64313283,65613285,63813287,63013289,60413291,57813293,58913295,65713297,66313299,72213301,78213303,78813305,83113307,81913309,85613311,89413313,88613315,85613317,83713319,81213321,77813323,74913325,71913327,68813330,65913332,63413334,61113336,60013338,59213340,57013342,55513344,54313346,52213348,50113350,51513352,55813354,55613356,57513358,58813360,57713362,56113364,55713366,53613368,51613370,51513373,52613375,52213377,51013379,53613381,59913383,61513385,63813387,71113389,73913391,71913393,70313395,68013397,65713399,63013401,60213403,57513405,55313407,53413409,52413411,53513413,53413415,52513417,54013419,55113421,53013423,50813425,48713427,46813429,45113431,44413433,49413435,55213437,55113439,60913441,67913443,68713445,65913447,63213449,60613451,58413453,56413455,54413458,52813460,52013462,51313464,49513466,47813468,46513470,46013472,44813474,43013476,41213478,39513480,37913482,36313484,34813486,33213488,31813490,30513492,29613494,29113496,28713498,27713501,28113503,28313505,27213507,26013509,24913511,23813513,22813515,21813517,20913519,20013521,19213523,18413525,17813527,17113529,16413531,15813533,15113535,14513537,13913539,13413541,13113543,12813545,12713547,12413549,12113551,11813553,11313555,11213557,11013559,10613561,10213563,9813565,19613567,23913569,25913571,26713573,37413575,39513577,41013579,41713581,41813583,41313586,39913588,38913590,37913592,36913594,36013596,34613598,33113600,32013602,31313604,30213606,29013608,27913610,26813612,25713614,24713616,24113618,23213620,22313622,21613624,21113626,20613629,20213631,19713633,19413635,19113637,18413639,17613641,17013643,16313645,15813647,15213649,15113651,14613653,14313655,13813657,13413659,13113661,12613663,12513665,12113667,11813669,11413671,11213673,11113675,10713677,10413679,10613681,10713683,10313685,10013687,9713689,9613691,10213693,10513695,10313697,10113699,9813701,9413703,9313705,9313707,9013709,8713711,9013714,9213716,9413718,9513720,9813722,9713724,9713726,10113728,10013730,9713732,9413734,9613736,10013738,10613740,10713742,10413744,10213746,10013748,10513750,10413752,10313754,10413757,10913759,11113761,11913763,12513765,12613767,12813769,12813771,12413773,13213775,13613777,15413779,15813781,15813783,15413785,15113787,15313789,15313791,14713793,14413795,13913797,13413799,13313801,13013803,13213805,13613807,14113809,14113811,14013813,14013815,14613817,14513819,14213821,13713823,14013825,14113827,14513829,14413831,14413833,13913835,13413837,13013839,12713842,12513844,12413846,12113848,11613850,11413852,11013854,10613856,10613858,10313860,10213862,9913864,9713866,10213868,10413870,10213872,10113874,10213876,9913878,9713880,9513882,9613885,9413887,9213889,9013891,8713893,8413895,8113897,7913899,7613901,7513903,7213905,7013907,6713909,6513911,6313913,6113915,5913917,6213919,6313921,6413923,6313925,6313927,6313929,6113931,5913933,5913935,5813937,5813939,5613941,6113943,6113945,6213947,5913949,5713951,5613953,5513955,5413957,5213959,5113961,4913963,4713965,4613967,4413970,4313972,4313974,4213976,4213978,4513980,4713982,4713984,4613986,4713988,5313990,6513992,8913994,11013996,11213998,13814000,17314002,19114004,19014006,18614008,17814010,17314013,16814015,16514017,16414019,16514021,17214023,17514025,17214027,16914029,16614031,16214033,16214035,16914037,17214039,18914041,19014043,22314045,26414047,26814049,27914051,29114053,29814055,30614057,32414059,32114061,34914063,39514065,39514067,40614069,41314071,40214073,41114075,41514077,40514079,39914081,40914083,41414085,40314087,40014089,38814091,39714093,40714095,39914098,40914100,39814102,40114104,39814106,43314108,45814110,45514112,44114114,46614116,50614118,52614120,52314122,56614124,57514126,56614128,57714130,58314132,57114134,57014136,57314138,55714141,55414143,53814145,51514147,50614149,54914151,56914153,56214155,61314157,72014159,77614161,77714163,80614165,78814167,80814169,81514171,80314173,81714175,81914177,79114179,78414181,76814183,76814185,79314187,79614189,79614191,82814193,82214195,79114197,77614199,77414201,77614203,81414205,87014207,86514209,93114211,93114213,93114215,93114217,93114219,93114221,93114223,93114226,93114228,93114230,93114232,93114234,93114236,93114238,93114240,93114242,93114244,93114246,93114248,93114250,93114252,93114254,93114256,93114258,93114260,93114262,93114264,93114266,93114269,93114271,93114273,93114275,93114277,93114279,93114281,93114283,93114285,93114287,93114289,93114291,93114293,93114295,93114297,93114299,93114301,93114303,93114305,93114307,93114309,93114311,93114313,93114315,93114317,93114319,93114321,93114323,93114325,93114327,93114329,93114331,93114333,93114335,93114337,93114339,93114341,93114343,93114345,93114347,93114349,93114351,93114354,93114356,93114358,93114360,93114362,93114364,93114366,93114368,93114370,93114372,93114374,93114376,93114378,93114380,93114382,93114384,93114386,93114388,93114390,93114392,93114394,93114397,93114399,93114401,93114403,93114405,93114407,93114409,93114411,93114413,93114415,93114417,93114419,93114421,93114423,93114425,93114427,93114429,93114431,93114433,93114435,93114437,93214439,93114441,93214443,93114445,93114447,93114449,93214451,93114453,93114455,93114457,93114459,93114461,93114463,93114465,93114467,93114469,93214471,93114473,93114475,93114477,93114479,93114482,93114484,93114486,93114488,93214490,93114492,93114494,93114496,93114498,93114500,93114502,93114504,93214506,93114508,93114510,93214512,93114514,93114516,93114518,93114520,93114522,93114525,93114527,93214529,93214531,93114533,93114535,93114537,93114539,93114541,93114543,93114545,93114547,93114549,93114551,93214553,93214555,93214557,93214559,93114561,93114563,93114565,93214567,93114569,93114571,93214573,93114575,93114577,93114579,93114581,93114583,93214585,93114587,93114589,93114591,93114593,93114595,93114597,93114599,93114601,93114603,93114605,93114607,93214610,93114612,93114614,93114616,93114618,93114620,93114622,93114624,93114626,93114628,93114630,93214632,93214634,93114636,93114638,93114640,93114642,93114644,93114646,93114648,93114650,93214653,93114655,93214657,93114659,93114661,93114663,93114665,93114667,93114669,93114671,93114673,93114675,93114677,93114679,93114681,93114683,93114685,93114687,93114689,93114691,93214693,93114695,93214697,93114699,93114701,93114703,93114705,93114707,93114709,93114711,93114713,93114715,93114717,93114719,93114721,93114723,93114725,93114727,93114729,93114731,93114733,93114735,93114738,93114740,93114742,93114744,93114746,93114748,93114750,93114752,93114754,93114756,93114758,93114760,93114762,93014764,93114766,93114768,93114770,93114772,93114774,93114776,93114778,93014781,89614783,85914785,82214787,78814789,75714791,72514793,70014795,67214797,65614799,65414801,66114803,66914805,67514807,67714809,67514811,65414813,64614815,62614817,62614819,61314821,60214823,60414825,61014827,61914829,65314831,70314833,68114835,69214837,68514839,65914841,63114843,60814845,58214847,55814849,57914851,60114853,62214855,65414857,62914859,60514861,58314863,57514866,55614868,54014870,51814872,50014874,48614876,49514878,49714880,50214882,50814884,49214886,47814888,47514890,46214892,50414894,50714896,53614898,53814900,54114902,54114904,55114906,58214909,57614911,57814913,58214915,57114917,55914919,53814921,51614923,49514925,69914927,70714929,69514931,67314933,68214935,71814937,70314939,68014941,67914943,67514945,70314947,71114949,73114951,72914953,70914955,72114957,73214959,72114961,70414963,70114965,73414967,74714969,80114971,80014973,78014975,77314977,74914979,72514981,69414983,66314985,63914987,62814989,62114991,61214994,60314996,61314998,74815000,77315002,90115004,93015006,93015008,90915010,88315012,85315014,86515016,85015018,85015020,88015022,87515024,90315026,89515028,91715030,92915032,90515034,92715037,90415039,86415041,82815043,80715045,79815047,77315049,74915051,73115053,72515055,74915057,78315059,80415061,87415063,86615065,83715067,82215069,79615071,78115073,77115075,75715077,73015079,72015081,70215083,72215085,79715087,79515089,82015091,84315093,84315095,82915097,81815099,80515101,78415103,77015105,79815107,81215109,79615111,93115113,93115115,93115117,93015119,92315122,90215124,91615126,88115128,85815130,85815132,85915134,83115136,83015138,83515140,81415142,80515144,91015146,93015148,93115150,93115152,93115154,93115156,93115158,93115160,93115162,93115165,93015167,89815169,87315171,85415173,82415175,79515177,77515179,74415181,71415183,68415185,65715187,64615189,69315191,68915193,71515195,76115197,76815199,80815201,81415203,79815205,81815207,80715209,77215211,76415213,78215215,78415217,83015219,87715221,87615223,88915225,86715227,86015229,82715231,79615233,77215235,74115237,74015239,74115241,72115243,72615245,70515247,68915250,66315252,64715254,62615256,59915258,57815260,57615262,56315264,54015266,52715268,51415270,52015272,54215274,54815276,55815278,60315280,59915282,59315284,58015286,56215288,53815290,51915293,53715295,56515297,55215299,53815301,54615303,55315305,53715307,54215309,53115311,51115313,48915315,46715317,44915319,43315321,41915323,40715325,40715327,42015329,42515331,41415333,42015335,42315337,42215339,46915341,49915343,48415345,49115347,50915349,50115351,48215353,46815355,45515357,46715359,49515361,50115363,48215365,46115367,44215369,43315371,42215373,43115375,46015378,46415380,47115382,50615384,50715386,49115388,48615390,48115392,47615394,46315396,44615398,44315400,44715402,44215404,42615406,41715408,40615410,40215412,42615414,44215416,43315418,45415421,48715423,48415425,48215427,47215429,45515431,44915433,43415435,42115437,42415439,42915441,41715443,42415445,42915447,41415449,39715451,38215453,37415455,36415457,34815459,34415461,37315463,39015465,39715467,40415469,43715471,45015473,44015475,42315477,40615479,39815481,38515483,37315485,36715487,37815489,40415491,40415493,42015495,45215497,45615499,43815501,41815503,40215506,38715508,37515510,36215512,34815514,33415516,31915518,30615520,29515522,28315524,27215526,26115528,24915530,23915532,22915534,22115536,21215538,20415540,19615542,19015544,18415546,17715549,17015551,16515553,16015555,15715557,15215559,14615561,14115563,13515565,13015567,12515569,12015571,11615573,11215575,10815577,10415579,10215581,9915583,9515585,9315587,9115589,8915591,8715593,8615595,8815597,9415599,9615601,9715603,9615605,9315607,9115609,8915611,8715613,8415615,8215617,8115619,8015621,7715623,7615625,7515627,7615629,7515631,7315634,7315636,7215638,7015640,6815642,6515644,8815646,8815648,8715650,8415652,8615654,8515656,8215658,8215660,9015662,9615664,9515666,9915668,10215670,9915672,9515674,9215677,8815679,8515681,8315683,8115685,8915687,9215689,9015691,9115693,9015695,8715697,8615699,8415701,8415703,8415705,9015707,9715709,10315711,10515713,10315715,10215717,10315719,10215721,10415723,10515725,10315727,10415729,10415731,10215733,10015735,10215737,10215739,10215741,10115743,9815745,9815747,9715749,10015751,9815753,10415755,10415757,10115759,10315762,10115764,9815766,9815768,10015770,9915772,10115774,11415776,11515778,12115780,12215782,11915784,12015786,12515788,12615790,12715792,22415794,23615796,24115798,24815800,25315802,25415805,25015807,24015809,23115811,22315813,21915815,21815817,21115819,20615821,20515823,20415825,20415827,20215829,19515831,18915833,18615835,19315837,19115839,18315841,17815843,17515845,17815847,17515849,18015851,17815853,17215855,17415857,18015859,18215861,19015863,19415865,20115867,20115869,21815871,22215873,23715875,23715877,23015879,22615881,22215883,22215885,21415887,21215890,21915892,21515894,21615896,21215898,20815900,20415902,21315904,21515906,22315908,21715910,20915912,20915914,22015916,21815918,21615920,20915922,21215924,21015926,20215928,19415930,18915933,18315935,17715937,17515939,16915941,17015943,16515945,16315947,16215949,15915951,15715953,16115955,15715957,16315959,16315961,15715963,15315965,15715967,15415969,15215971,15115973,15415975,15815977,15415979,14915981,14315983,14115985,13915987,13815989,13415991,12815993,12715995,12515997,12115999,11716001,11416003,11016005,11116007,11016009,10916011,11016013,11216015,11416018,11616020,11416022,11216024,12016026,12616028,12716030,12916032,12716034,12216036,11816038,11316040,10816042,10416044,10016046,9616048,9216050,8916052,8516054,8216056,7916058,7616061,7316063,7116065,6816067,6616069,6316071,6116073,5916075,5816077,5616079,5616081,5616083,5816085,5616087,5616089,5716091,5616093,5816095,6416097,7516099,9316101,9816103,10216105,12816107,15416109,15516111,16216113,17216115,16816117,17916119,19516121,19516123,20316125,21316127,21416129,22316131,24516133,27516135,27816137,32616139,39516141,41516143,40016146,40016148,41916150,43716152,42816154,43816156,44316158,42916160,42116162,42216164,41316166,40716168,40716170,39816172,38216174,37616176,39416178,40916180,39616182,39416184,38016186,37316189,40216191,42016193,41416195,43616197,46116199,47216201,45716203,45716205,45016207,43716209,43216211,42616213,45316215,47816217,46916219,48316221,51716223,51316225,50516227,53016229,54116231,53116233,52216235,50416237,50316239,50516241,48916243,46916245,47016247,48716249,51316251,55516253,61116255,64916257,67916259,82316261,91416263,89416265,87716267,84316269,81116271,78516274,75716276,72616278,71916280,78816282,87016284,87416286,87816288,90616290,89116292,89316294,90616296,88816298,91116300,89016302,89016304,86416306,85316308,82616310,80616312,80816314,81016317,79816319,82416321,80816323,81816325,84516327,83116329,84616331,87416333,85416335,87716337,88516339,93116341,93116343,93116345,93116347,93116349,93116351,93116353,93116355,93116357,93116359,93116361,93116363,93116365,93116367,93116369,93116371,93116373,93116375,93116377,93116379,93116381,93116383,93116385,93116387,93116389,93116391,93116393,93116395,93116397,93116399,93116402,93116404,93116406,93116408,93116410,93116412,93116414,93116416,93116418,93116420,93116422,93116424,93116426,93116428,93116430,93116432,93116434,93116436,93116438,93116440,93116442,93116445,93116447,93116449,93116451,93116453,93116455,93116457,93116459,93116461,93116463,93116465,93116467,93116469,93116471,93116473,93116475,93116477,93116479,93116481,93116483,93116485,93116487,93116489,93116491,93116493,93116495,93116497,93116499,93116501,93116503,93216505,93116507,93116509,93116511,93116513,93116515,93116517,93116519,93116521,93116523,93116525,93116527,93116530,93116532,93116534,93116536,93116538,93116540,93116542,93116544,93116546,93116548,93116550,93116552,93116554,93116556,93216558,93116560,93116562,93116564,93116566,93116568,93216570,93216573,93116575,93116577,93216579,93116581,93116583,93116585,93116587,93116589,93116591,93116593,93216595,93116597,93116599,93116601,93116603,93116605,93116607,93116609,93216611,93116613,93116615,93216617,93116619,93116621,93116623,93216625,93116627,93216629,93216631,93216633,93116635,93216637,93116639,93116641,93116643,93116645,93116647,93116649,93116651,93116653,93116655,93216658,93116660,93216662,93116664,93116666,93116668,93116670,93116672,93116674,93116676,93116678,93116680,93116682,93116684,93116686,93116688,93116690,93116692,93216694,93116696,93116698,93116701,93116703,93216705,93116707,93116709,93216711,93116713,93216715,93116717,93116719,93116721,93116723,93216725,93216727,93116729,93116731,93116733,93116735,93116737,93116739,93116741,93116743,93116745,93216747,93116749,93116751,93216753,93116755,93116757,93116759,93116761,93116763,93116765,93116767,93116769,93116771,93116773,93116775,93116777,93116779,93116781,93216783,93116786,93216788,93116790,93116792,93216794,93116796,93216798,93116800,93116802,93116804,93116806,93116808,93216810,93116812,93116814,93116816,93116818,93116820,93116822,93116824,93216826,93116829,93116831,93116833,93116835,93116837,93116839,93116841,93116843,93116845,93216847,93116849,93116851,93116853,93116855,93216857,93116859,93116861,93216863,93116865,93116867,93116869,93216871,93116873,93116875,93116877,93116879,93116881,93116883,93116885,93116887,93116889,93116891,93116893,93116895,93116897,93116899,93116901,93116903,93116905,93116907,93116909,93116911,93116914,93116916,93116918,93116920,93116922,93116924,93116926,93116928,93116930,93116932,93116934,93116936,93116938,93116940,93116942,93116944,93116946,93116948,93116950,93116952,93116954,93116957,93016959,92716961,90816963,89416965,85916967,82416969,80416971,78416973,77316975,76416977,73416979,70316981,67116983,64116985,61316987,59216989,57416991,55816993,54716995,53616997,51816999,50917001,49317003,49817005,50617007,49517009,49117011,47217013,45517015,44917017,43617019,42417021,41217023,39817025,38917027,38817029,39717031,41617033,40817035,39717037,38417039,37817042,39917044,43017046,44817048,46717050,53517052,56317054,64617056,67317058,66717060,64117062,61517064,58917066,56517068,54117070,52017072,50117074,48017076,45817078,44317080,42717082,41417085,40517087,39817089,39517091,38017093,38317095,38117097,37517099,40717101,44317103,45517105,46117107,45917109,49117111,49717113,54417115,53917117,52717119,51517121,49917123,48217125,46617127,46817129,50217131,50417133,54017135,55317137,53717139,52317141,52717143,52517145,52417147,53217149,51817151,50217153,50617155,64017157,61717159,59717161,60917163,61817165,61217167,61517170,59817172,59017174,58117176,57217178,55417180,54817182,53617184,51417186,58117188,75817190,80917192,93117194,93117196,93117198,93117200,93117202,93117204,93117206,93117208,93017210,91217213,88317215,86917217,86917219,86417221,87917223,85317225,84317227,84017229,81617231,80517233,77917235,75317237,73617239,70817241,69017243,70017245,68617247,66917249,65517251,74917253,76917255,79217257,89017259,93117261,93117263,93117265,93017267,93117269,93117271,93017273,90517275,88217277,86117279,85117281,82817283,82917285,81617287,80817289,83717291,81617293,79617295,77817298,75317300,77417302,78117304,74617306,71617308,69117310,67217312,64817314,63217316,72717318,85117320,89517322,93117324,93117326,93117328,93117330,93117332,93117334,93117336,93117338,93117341,93117343,93117345,93117347,93117349,93117351,93117353,92317355,88217357,85717359,82817361,79617363,76417365,73017367,70317369,68017371,66617373,65717375,65817377,63817379,61917381,59717383,58717385,60317387,61617389,64517391,64617393,64517395,64817397,62217399,60517401,62017403,60517405,61517407,64117409,62317411,60617413,62817415,71217417,71017419,77017421,82017423,79817426,77217428,74017430,71317432,69317434,68617436,67117438,64517440,63217442,60917444,59317446,60817448,66217450,69117452,69117454,72617456,73817458,71917460,71917462,71617464,70817466,70117469,68017471,65017473,62117475,61217477,62217479,61417481,59117483,57317485,55017487,53017489,51217491,49617493,49117495,49417497,48617499,47917501,46317503,45617505,45917507,44817509,43017511,42017513,42017515,50717517,53717519,57817521,67517523,70217525,68317527,66617529,66917531,66117533,64317535,63017537,60617539,58117541,56317543,55017545,56417547,54917549,55317551,55517554,54017556,53917558,52717560,51117562,50917564,50117566,48417568,46417570,44417572,42417574,40617576,39017578,37517580,36117582,35017584,37917586,43217588,44117590,46317592,51317594,53617597,53017599,51117601,49117603,51017605,56017607,56217609,57317611,60617613,61017615,59017617,56617619,54817621,53417623,51717625,51117627,50917629,50517631,48617633,47817635,48517637,48417639,47617641,45917643,44517645,42917647,41317649,39817651,38417653,37017655,35517657,34017659,32517661,31117663,29717665,28417667,27217669,26017671,24917673,23817675,22917677,21917679,21017682,20117684,19317686,18417688,17717690,16917692,16217694,15617696,14917698,14317700,13717702,13217704,12617706,12117708,11617710,11217712,10817714,10417716,10017718,9617720,9217722,8917725,8517727,8217729,7917731,7617733,7317735,7117737,6817739,6617741,6317743,6117745,6017747,5917749,5817751,5617753,5417755,5317757,5217759,5017761,5017763,4917765,4717767,4717769,4817771,4917773,4817775,4717777,4617779,4517781,4417783,4317785,4217787,4117789,4117791,4017793,4217795,4517797,4417799,4317801,4217803,4217805,4417807,4217810,4117812,4017814,3917816,4217818,4317820,4217822,4317824,4317826,4217828,4317830,4417832,4417834,4517836,4417838,4317840,4317842,4217844,4117846,3917848,3817850,3717853,3717855,3617857,3717859,3917861,4217863,4117865,3917867,3917869,3817871,3717873,3617875,3517877,3417879,3317881,3217883,3217885,3117887,3117889,3217891,13617893,15317895,15917897,16717899,17117901,17117903,17117905,16817907,16617909,16817911,17117913,16917915,16617917,16017919,16017921,16017923,15517925,15017927,14417929,14017931,13517933,13417935,13417938,12917940,12717942,12217944,11717946,11317948,11017950,10817952,10517954,10417956,10617958,10617960,10417962,10117964,10517966,10317968,11617970,12317972,12517974,12517976,12417978,12417981,12817983,12617985,12317987,12217989,12117991,11817993,11317995,11217997,11217999,10818001,10618003,10718005,10918007,10618009,10518011,10118013,9818015,9718017,9618019,9818021,9918023,9718025,9818027,10018029,10118031,10118033,10618035,10718037,10818039,10418041,10218043,10318045,10118047,9818049,10418051,10618053,11418055,11918057,11918059,12118061,12318063,12018066,12018068,11818070,11618072,11618074,12118076,12118078,12718080,12818082,12818084,12918086,12918088,12918090,13218092,13518094,13718096,13618098,13818100,13918102,13618104,13518106,13218109,12818111,12418113,13118115,13618117,13618119,13518121,13118123,12918125,13518127,13918129,13818131,13418133,13018135,12818137,12718139,13218141,12718143,12318145,12118147,11818149,11418151,11118153,10818155,10418157,10318159,10318161,10318163,10118165,9818167,9718169,9718171,9718173,10318175,10318177,10318179,10818181,11618183,11818185,11418187,11218189,11218191,10818194,10418196,10018198,9618200,9218202,8918204,8518206,8218208,7918210,7618212,7318214,7118216,6918218,6618220,6418222,6418224,6718226,6818228,6618230,6918232,7018234,6818237,7618239,8618241,9518243,10318245,10318247,11818249,13118251,13118253,12818255,12918257,14818259,15618261,15318263,16018265,15718267,16318269,17118271,18618273,23218275,26518277,27218279,29618281,35218283,36618285,35818287,35318289,34118291,33518293,34418295,34218297,33718299,33518301,34918303,36218305,35518307,35918309,35218311,35218313,35718315,35118317,36918319,37918322,37118324,36818326,35918328,36218330,37718332,37818334,42418336,46718338,46518340,51418342,55318344,53818346,52218348,51918350,52218352,53118354,57718356,58318358,59418360,63318362,63318365,61318367,60518369,61618371,63018373,62318375,60318377,60518379,61618381,61718383,59618385,59118387,65318389,72618391,72418393,75618395,80418397,81818399,83118401,84418403,82218405,84818407,87418409,91418411,90018413,87918415,85318417,83618419,81618421,80618423,79718425,81318427,82518429,83318431,91618433,93018435,93118437,93118439,93118441,93118443,93118445,93118447,93118450,93118452,93118454,93118456,93118458,93118460,93118462,93118464,93118466,93118468,93118470,93118472,93118474,93118476,93118478,93118480,93118482,93118484,93118486,93118488,93118490,93118493,93118495,93118497,93118499,93118501,93118503,93118505,93118507,93118509,93118511,93118513,93118515,93118517,93118519,93118521,93118523,93118525,93118527,93118529,93118531,93118533,93118535,93218537,93118539,93118541,93118543,93118545,93118547,93118549,93118551,93118553,93118555,93118557,93118559,93118561,93118563,93118565,93118567,93118569,93118571,93118573,93218575,93118578,93118580,93118582,93118584,93118586,93118588,93118590,93118592,93118594,93118596,93118598,93118600,93118602,93118604,93118606,93118608,93118610,93118612,93118614,93118616,93118618,93118621,93118623,93118625,93118627,93118629,93118631,93118633,93118635,93118637,93118639,93118641,93118643,93118645,93118647,93118649,93118651,93118653,93118655,93118657,93118659,93118661,93118663,93118665,93118667,93118669,93118671,93118673,93118675,93118677,93118679,93118681,93118683,93118685,93118687,93118689,93118691,93118693,93118695,93118697,93118699,93118701,93118703,93118706,93118708,93118710,93118712,93118714,93118716,93118718,93118720,93118722,93218724,93218726,93118728,93118730,93118732,93118734,93218736,93218738,93118740,93118742,93218744,93118746,93118749,93118751,93118753,93118755,93118757,93218759,93118761,93118763,93118765,93118767,93118769,93118771,93118773,93118775,93118777,93118779,93118781,93118783,93218785,93118787,93118789,93118791,93118793,93118795,93118797,93118799,93118801,93118803,93118805,93118807,93118809,93118811,93118813,93218815,93118817,93118819,93118821,93118823,93118825,93118827,93118829,93118831,93118834,93218836,93118838,93118840,93118842,93118844,93118846,93218848,93118850,93118852,93118854,93118856,93118858,93118860,93118862,93118864,93118866,93218868,93118870,93218872,93118874,93118877,93118879,93118881,93218883,93118885,93118887,93118889,93118891,93118893,93118895,93218897,93218899,93118901,93218903,93118905,93218907,93118909,93118911,93218913,93118915,93118917,93118919,93218921,93118923,93118925,93118927,93118929,93118931,93118933,93218935,93118937,93218939,93118941,93118943,93118945,93118947,93118949,93118951,93118953,93118955,93118957,93118959,93118962,93118964,93118966,93118968,93118970,93118972,93118974,93118976,93118978,93118980,93118982,93118984,93118986,93118988,93118990,93118992,93118994,93118996,93118998,93119000,93119002,93119005,93119007,93119009,93119011,93119013,93119015,93119017,93119019,93119021,93119023,93119025,93119027,93119029,93119031,93119033,93119035,93119037,93119039,93119041,93119043,93119045,93119047,93119049,93119051,93119053,93119055,93119057,93119059,93119061,93119063,93119065,93119067,93119069,93119071,93119073,93119075,93119077,93119079,93119081,93119083,93119085,93119087,93119090,93119092,93119094,93019096,91019098,88119100,84319102,80619104,80319106,78019108,78319110,77219112,74119114,87019116,88919118,92819120,92519122,89219124,86519126,82719128,80819130,79019133,75719135,73019137,70119139,70119141,68419143,68219145,67519147,65619149,66119151,65419153,66319155,69019157,68419159,67719161,65419163,63319165,61019167,58619169,56519171,55719173,57119175,56219177,57419179,58719181,56519183,54219185,52819187,51219189,52519191,53519193,56019195,56719197,56819199,58919201,66919203,67719205,65119207,63219209,79919211,80219213,78619215,75419218,72619220,69719222,66719224,71019226,71319228,75919230,82619232,80019234,76819236,73919238,71019240,68419242,65719244,66819246,68219248,66819250,65519252,67019254,66919256,68319258,66519261,70119263,74519265,73719267,72719269,69719271,67319273,65119275,64319277,64019279,62219281,60619283,60119285,62619287,69819289,82119291,85319293,93119295,93119297,93119299,93119301,93119303,93119305,93119307,93119309,93119311,93119313,93119315,93119317,93119319,93119321,93119323,93119325,93119327,93119329,93119331,93119333,93119335,93119337,93119339,93119341,93119343,93119346,93119348,93119350,93019352,93019354,93119356,93119358,93119360,93119362,93119364,93119366,93119368,93119370,93119372,93119374,93119376,93119378,93119380,93119382,93119384,93119386,93119389,93119391,93119393,93119395,93119397,93119399,93119401,93119403,93119405,93119407,93119409,93019411,91719413,88119415,86419417,84919419,81519421,78619423,81519425,84819427,85119429,83819431,84419433,83319435,93119437,93119439,93119441,93119443,93119445,93119447,93119449,93119451,93119453,93119455,93119457,93119459,93119461,93119463,93119465,93119467,93119469,93019471,91119474,87519476,85119478,83619480,86619482,93019484,93119486,93119488,93119490,93119492,93119494,93119496,93119498,93119500,93119502,93119504,93119506,93119508,93119510,93119512,93119514,93119517,93119519,93119521,93119523,93119525,93019527,90219529,89019531,91819533,91419535,87919537,85819539,87719541,86119543,91719545,93119547,93019549,91719551,89819553,88719555,87019557,84119559,84219561,86219563,86619565,83719567,83719569,85119571,87119573,85019575,84619577,85819579,85419581,84919583,82519585,79219587,77819589,77419591,77019593,74819595,71719597,69519599,69619602,69819604,68919606,69619608,75419610,79319612,78219614,74719616,71919618,71119620,72219622,71019624,69119626,67519628,70119630,69619632,70619634,73919636,72219638,69019640,65919642,63219645,61619647,60319649,63219651,67719653,67019655,71619657,78119659,77319661,79719663,86019665,87519667,88419669,93119671,93119673,93119675,92219677,88619679,86319681,84719683,82419685,79319687,78219689,75619691,74819693,72919695,70719697,70719699,69519701,67119703,64919705,62319707,62219709,67119711,69319713,69519715,75919717,79119719,76219721,73119723,69919725,67119727,64719730,62519732,60219734,58319736,58019738,60219740,62219742,61819744,59719746,60119748,63319750,67019752,69419754,68219756,68819758,67319760,66119762,66219764,64119766,63319768,62419770,61019773,59019775,56519777,54819779,53919781,52119783,50219785,48019787,46319789,44619791,42619793,41219795,39819797,40219799,47319801,53619803,53919805,61019807,68819809,70619811,68719813,65919815,64719817,62719819,61619821,60619823,58919825,56319827,54019829,52319831,50119833,48919835,47219837,45219839,43319841,41419843,39619845,38219847,37619849,36919851,35519853,34819855,34319858,33519860,32419862,31019864,29719866,28419868,27219870,26119872,24919874,23919876,22919878,21919880,21019882,20119884,19219886,18419888,17619890,16919892,16219894,15519896,14819898,14319901,13719903,13119905,12719907,13319909,14719911,15219913,16419915,19219917,19419919,18919921,18219923,17719925,17219927,16519929,15919931,15319933,14719935,14119937,13519939,13019941,12519943,12219945,11719947,11319949,11019951,10519953,10119955,9819957,9419959,9119961,8719963,8419965,8219967,7919969,7819971,8019973,7919975,8019977,7719979,7519981,7419983,7219986,6919988,6719990,6619992,6519994,6619996,6519998,6320000,31420002,34620004,37520006,39220008,39920010,40320012,40520014,40020016,38920018,46920020,47220022,47320024,46520026,45620029,44620031,43920033,54620035,54920037,54920039,54520041,53720043,52620045,51320047,49520049,47420051,46120053,45420055,44120057,42120059,40320061,38520063,36920065,35320067,33820069,32320071,31620073,30220075,28920077,27820079,26720081,25720083,24620085,24320087,23520089,22520091,21620093,20720095,19920097,19120099,18420101,17720103,17120105,16520107,15920109,15620111,15620114,15520116,15020118,14720120,14220122,13920124,13620126,13120128,13120130,13320132,13520134,13120136,12620138,12420140,12320142,12020144,11920146,12120148,11820150,11720152,11420154,11020157,10620159,10320161,10120163,9720165,9820167,10020169,9820171,10120173,9820175,9620177,9620179,9620181,9620183,9520185,9520187,9520189,9320191,9120193,8920195,9320197,9320199,9420201,9220203,9520205,9220207,9420209,9520211,9120213,9020215,9120217,9220219,9620221,9220223,8920225,8720227,8520229,8620231,9120233,9320235,9720237,9720239,22920242,25320244,29420246,31920248,33120250,33620252,33820254,33120256,32220258,31320260,30320262,29020264,28520266,27920268,27920270,27220272,26820274,34120276,40420278,42320280,43020282,42820285,42120287,41320289,40720291,40020293,38820295,37620297,36220299,35220301,34220303,34220305,35820307,34720309,34020311,32720313,32120315,30920317,29920319,29020321,27920323,26820325,26520327,26220329,25820331,24820333,24020335,23320337,23020339,22320341,22720343,22020345,21120347,20620349,21020351,20320353,20020355,20020357,19320359,18920361,18120363,17920365,17420367,17420370,16920372,16320374,15620376,15320378,15420380,16120382,16820384,16620386,16020388,15920390,15820392,16420394,16920396,16220398,15820400,16520402,16320404,15720406,15720408,15820410,15620413,15720415,15120417,14620419,14320421,14020423,13820425,13520427,13020429,12620431,12120433,11820435,11720437,11420439,11120441,10820443,11420445,11520447,11320449,10920451,10520453,10120455,10220457,10620459,10920461,10820463,10320465,10020467,9720469,9420471,9420473,9720475,9720477,9920479,9720481,9420483,9020485,8720487,8420489,8120491,7820493,7520495,7320498,7220500,6920502,6720504,6520506,6320508,6220510,6220512,6220514,6220516,6620518,6720520,6620522,6420524,6220526,6020528,5820530,5620532,5620534,7620536,11220538,14220541,14720543,18720545,23020547,24020549,23120551,22220553,21220555,20320557,19520559,18820561,18020563,20020565,25720567,30820569,31120571,34120573,37320575,39320577,41520579,42220581,40720583,39920585,38520587,37020589,35720591,37120593,43120595,48720597,49020599,50320601,50820603,48920605,49120607,50920609,53220611,54920613,54620615,53020617,52120619,53520621,56820623,58820626,58320628,56220630,54320632,53120634,51220636,49220638,48120640,48420642,50320644,50320646,48220648,46120650,44120652,43520654,44920656,46920658,45820660,46020662,47720664,50320666,51620669,58220671,60720673,61620675,62820677,63920679,67720681,69620683,79220685,85320687,84020689,82820691,84420693,84220695,82420697,82320699,87920701,88720703,91220705,93120707,93120709,93120711,93120713,93120715,93120717,93120719,93120721,93120723,93120725,93120727,93120729,93120731,93120733,93120735,93120737,93120739,93120741,93120743,93120745,93120747,93120749,93120751,93120754,93120756,93120758,93120760,93120762,93120764,93120766,93120768,93120770,93120772,93120774,93120776,93120778,93120780,93120782,93120784,93120786,93020788,93120790,93120792,93120794,93120797,93120799,93120801,93120803,93120805,93120807,93120809,93120811,93120813,93120815,93120817,93120819,93120821,93120823,93120825,93120827,93120829,93120831,93120833,93120835,93120837,93220839,93120841,93120843,93120845,93120847,93220849,93220851,93120853,93120855,93120857,93120859,93120861,93120863,93120865,93220867,93120869,93120871,93120873,93120875,93120877,93120879,93120882,93120884,93120886,93120888,93120890,93120892,93120894,93220896,93120898,93220900,93120902,93120904,93120906,93120908,93220910,93120912,93120914,93120916,93120918,93220920,93120922,93120925,93220927,93120929,93120931,93120933,93120935,93120937,93120939,93220941,93120943,93120945,93120947,93220949,93120951,93120953,93120955,93220957,93120959,93120961,93120963,93120965,93220967,93120969,93120971,93220973,93120975,93220977,93120979,93120981,93220983,93220985,93220987,93120989,93120991,93220993,93120995,93220997,93120999,93221001,93121003,93121005,93221007,93221010,93121012,93221014,93121016,93121018,93121020,93121022,93121024,93121026,93121028,93121030,93121032,93121034,93221036,93221038,93121040,93121042,93121044,93121046,93121048,93221050,93221053,93121055,93221057,93121059,93121061,93121063,93221065,93121067,93121069,93221071,93221073,93121075,93221077,93221079,93121081,93121083,93121085,93221087,93121089,93121091,93121093,93121095,93121097,93121099,93121101,93121103,93121105,93121107,93221109,93121111,93121113,93121115,93121117,93221119,93221121,93221123,93121125,93121127,93121129,93121131,93221133,93121135,93121138,93221140,93121142,93121144,93121146,93121148,93121150,93121152,93121154,93121156,93221158,93121160,93121162,93121164,93121166,93221168,93121170,93121172,93221174,93121176,93121178,93221181,93121183,93121185,93121187,93221189,93121191,93221193,93121195,93121197,93221199,93121201,93121203,93221205,93121207,93121209,93121211,93121213,93121215,93121217,93121219,93121221,93121223,93121225,93121227,93121229,93121231,93121233,93121235,93121237,93121239,93121241,93121243,93121245,93121247,93121249,93121251,93121253,93121255,93121257,93121259,93121261,93121263,93121266,93121268,93121270,93121272,93121274,93121276,93121278,93121280,93121282,93121284,93121286,93121288,93121290,93021292,90421294,87121296,83221298,80221300,85621302,84421304,87921306,89221309,91521311,91121313,93121315,93121317,93121319,93121321,93121323,93121325,93121327,93121329,93121331,93121333,93121335,93121337,93121339,93121341,93121343,93121345,93121347,93121349,93121351,93121353,93121355,93121357,93121359,93121361,93121363,93121365,93121367,93121369,93121371,93121373,93121375,93121377,90621379,86721381,83021383,79521385,76321387,73121389,70321391,67721394,66321396,64521398,64521400,63021402,62521404,60021406,57521408,55121410,52721412,50821414,48921416,47121418,46321420,44721422,43921424,42121426,41421428,42921430,45121432,44421434,49321437,55021439,56021441,58521443,58121445,56821447,56721449,56221451,53921453,52421455,51221457,49121459,47421461,45921463,45421465,45321467,46221469,48021471,47721473,52221475,55221477,53721479,53921481,55621483,55321485,54021487,51821489,51421491,52421493,52821495,52921497,52721499,52821501,51221503,51321505,52421507,55621509,58221511,61121513,61621515,66521517,65221519,62521522,60221524,61221526,59521528,58921530,57721532,57321534,55821536,53821538,51721540,50321542,49321544,49921546,49021548,51421550,51421552,50721554,51321556,51621558,53621560,59321562,68521565,74521567,85221569,85321571,86821573,83821575,81421577,79521579,86821581,93121583,93121585,93121587,93121589,93121591,93121593,93121595,93121597,93121599,93121601,93121603,93121605,93121607,93121609,93121611,93121613,93121615,93021617,90021619,86421621,82821623,79621625,79021627,80221629,78421631,79121633,81421635,81121637,78421639,82821641,86421643,85421645,90221647,91721650,93121652,93121654,93121656,93121658,93121660,93121662,93121664,93121666,93121668,93121670,93121672,93121674,93121676,93121678,93121680,93121682,93121684,93121686,93121688,92821690,88421693,85021695,82421697,79521699,76121701,72821703,73921705,74821707,80621709,81321711,80021713,82421715,80521717,77421719,79421721,83521723,84321725,82321727,80421729,83421731,85321733,87521735,86421737,89021739,93121741,93121743,93121745,93121747,93021749,93021751,90721753,87121755,83321757,80021759,77521761,77321763,77721765,76021767,73221769,71221771,68821773,65821775,63521778,62221780,61821782,60621784,61221786,59421788,57021790,57221792,56521794,55621796,58021798,56721800,61621802,72221804,74521806,72721808,69921810,67721812,68421814,81521816,89221818,91121821,93121823,93121825,93121827,93121829,93121831,93121833,93021835,90521837,87021839,83321841,79621843,76321845,75321847,87221849,93121851,93121853,93121855,93121857,93121859,93121861,93121863,93121865,93121867,93121869,93121871,93121873,93121875,92521877,90621879,93121881,93121883,93121885,93121887,93121889,93121891,93121893,93121895,93121897,93021899,89621901,85621903,82021906,79021908,77121910,79021912,79921914,78121916,80121918,80221920,77421922,76021924,74021926,73121928,73821930,72621932,73221934,76421936,75121938,72821940,70121942,68421944,66121946,64021949,62321951,61321953,59021955,56421957,54121959,52121961,50321963,48421965,46421967,44621969,42721971,40921973,39221975,37521977,37221979,38421981,38221983,37821985,38221987,38521989,41321991,41621993,41921995,46621997,49321999,48022001,45922003,43922005,42322007,40822009,39422011,37922013,37022015,36722017,36922019,35922021,34322023,32922025,32022027,32822029,33522031,32922034,31622036,30322038,29022040,27922042,26922044,26022046,25022048,24022050,22922052,22022054,21022056,20122058,19322060,18522062,17722064,17022066,16322068,15622070,14922072,14322074,13722077,13222079,12722081,12222083,11722085,11222087,10822089,10422091,9922093,9622095,9222097,8922099,8522101,8222103,7922105,7622107,7322109,7122111,6822113,6622115,6322117,6122119,6022121,5822123,5622125,5522127,5422129,5222131,5022133,4922135,4822137,4622139,4522141,4422143,4322145,4222147,4022149,3922151,3822153,3822155,3822157,3722159,3522162,3622164,3722166,3722168,3622170,3622172,3622174,3622176,3522178,3422180,3522182,3522184,3622186,3722188,3722190,3622192,3622194,3722196,3722198,4222200,4222202,4422205,4322207,4122209,4022211,4122213,4322215,4222217,4522219,4922221,4822223,4922225,5022227,4822229,5222231,5522233,5622235,6022237,6322239,6322241,6422243,6222245,6122247,6122249,6122251,5922253,6222255,6322257,6222259,6122261,6122263,6122265,5822267,5722269,5622271,5422273,5222275,5122277,5222279,5622281,5622283,5722285,5722287,6122290,6022292,5822294,5722296,5522298,5822300,5722302,16922304,19222306,21422308,23022310,23622312,23022314,23022316,23122318,22522320,21522322,20822324,19922326,19322328,18922330,18522333,18022335,17622337,17322339,16622341,16022343,16422345,15922347,15522349,15122351,14622353,14322355,14522357,14022359,13922361,13522363,13222365,12822367,12322369,12222371,11722373,11522375,12022377,12122379,11822381,11522383,11122385,10822387,10522389,10122391,9722393,9322395,9122397,9122399,8822401,8822403,8622405,8422407,8522409,8422411,8922413,8822415,8422418,8322420,8222422,8022424,7922426,8122428,8722430,9722432,9922434,9822436,9822438,9422440,9322442,9122444,9422446,9522448,11222450,11322452,11722454,11922456,12222458,12022461,11622463,11322465,10922467,11122469,11222471,11322473,12422475,12722477,13522479,13822481,13922483,13822485,13322487,13422489,13222491,13122493,12522495,13022497,13122499,13622501,14122503,14022505,14322507,14022509,13622511,13422513,13022515,12822517,12422519,11922521,11522523,11122525,10822527,10722529,10722531,11122533,10822535,11422537,11922539,12322541,13622543,13322546,13022548,13022550,14022552,14322554,14322556,14622558,14222560,13822562,13522564,13622566,13322568,13322570,13122572,12522574,12022576,11622578,11222580,10922582,10722584,10322586,10222589,9922591,9522593,9322595,9122597,8722599,8522601,8522603,8822605,8522607,8422609,8322611,8222613,8222615,8222617,8222619,8022621,8122623,8022625,8622627,8322629,8822631,8822633,8722635,8522637,8222639,7922641,7722643,7622645,7322647,7122649,6822651,6522653,6322655,6122657,6422659,6622661,6422663,6422665,6822667,6622669,7522671,8322674,9022676,9322678,9022680,8922682,8622684,8522686,8822688,8522690,8222692,8122694,9222696,11022698,11822700,12622702,15222704,15722706,17922708,19322710,19722712,22822714,25022717,24622719,25822721,26622723,25722725,24922727,25022729,24322731,23522733,23122735,22522737,23222739,24422741,24622743,24022745,24222747,24022749,24922751,27522753,29122755,29322757,32022759,33322761,36222763,38422765,38422767,36922769,36122771,36522773,36622775,36222777,35622779,35622781,35722783,35422785,34022787,33722789,33722791,32822793,34622795,37022797,36522799,38122802,37622804,37622806,36822808,37222810,37022812,37222814,40622816,43022818,42222820,45322822,49822824,50822826,51322828,55522830,57922832,56522834,57022836,57922838,58122840,56322842,55122845,58622847,66222849,66722851,74022853,85022855,85922857,91322859,93122861,93122863,93122865,93122867,93122869,93122871,93122873,93022875,93122877,93122879,93122881,93122883,93122885,93122887,93122889,93122891,93122893,93122895,93122897,93122899,93122901,93122903,93122905,93122907,93122909,93122911,93122913,93122915,93122917,93122919,93122921,93122923,93122925,93122927,93122930,93122932,93122934,93122936,93122938,93122940,93122942,93122944,93122946,93122948,93122950,93122952,93122954,93122956,93122958,93122960,93122962,93122964,93122966,93122968,93122970,93122973,93122975,93122977,93122979,93122981,93122983,93122985,93122987,93122989,93122991,93122993,93122995,93122997,93122999,93123001,93123003,93123005,93123007,93123009,93123011,93123013,93123015,93123017,93123019,93123021,93123023,93123025,93123027,93123029,93123031,93123033,93123035,93123037,93123039,93123041,93123043,93123045,93123047,93123049,93123051,93123053,93123055,93123058,93123060,93123062,93123064,93123066,93123068,93223070,93123072,93123074,93123076,93123078,93123080,93123082,93123084,93123086,93123088,93123090,93123092,93123094,93123096,93123098,93123101,93123103,93123105,93123107,93123109,93123111,93223113,93123115,93123117,93223119,93123121,93123123,93123125,93123127,93123129,93223131,93123133,93223135,93223137,93123139,93123141,93123143,93123145,93123147,93123149,93123151,93123153,93123155,93223157,93123159,93123161,93123163,93223165,93123167,93223169,93123171,93123173,93123175,93223177,93123179,93223181,93123183,93123186,93123188,93123190,93223192,93123194,93123196,93223198,93123200,93223202,93123204,93223206,93123208,93123210,93123212,93123214,93123216,93223218,93123220,93123222,93123224,93123226,93123229,93123231,93123233,93123235,93123237,93123239,93123241,93223243,93123245,93123247,93123249,93223251,93223253,93123255,93223257,93123259,93123261,93223263,93123265,93123267,93223269,93123271,93223273,93123275,93223277,93223279,93123281,93223283,93123285,93123287,93123289,93223291,93123293,93123295,93123297,93223299,93123301,93123303,93123305,93223307,93123309,93223311,93123314,93123316,93123318,93223320,93123322,93123324,93123326,93123328,93123330,93223332,93223334,93123336,93123338,93123340,93223342,93223344,93123346,93223348,93223350,93223352,93123354,93223357,93223359,93223361,93123363,93223365,93223367,93123369,93123371,93223373,93123375,93123377,93123379,93123381,93223383,93223385,93123387,93223389,93123391,93223393,93123395,93123397,93123399,93123401,93223403,93223405,93223407,93123409,93223411,93123413,93223415,93123417,93223419,93123421,93123423,93123425,93123427,93123429,93123431,93123433,93123435,93123437,93123439,93123442,93223444,93223446,93123448,93123450,93223452,93123454,93123456,93123458,93123460,93223462,93123464,93123466,93123468,93123470,93123472,93123474,93123476,93123478,93123480,93123482,93123485,93123487,93123489,93123491,93123493,93123495,93123497,93123499,93123501,93123503,93123505,93123507,93123509,93123511,93123513,93123515,93123517,93123519,93123521,93123523,93123525,93123527,93123529,93123531,93123533,93123535,93123537,93123539,93123541,93123543,93123545,93123547,93123549,93123551,93123553,93123555,93123557,93123559,93123561,93123563,93123565,93123567,93123570,91323572,88323574,85423576,83023578,80123580,78023582,76223584,74723586,80623588,81323590,90123592,93023594,92623596,89723598,89523600,90223602,92423604,93123606,93123608,93123610,93123613,93123615,93123617,93123619,93123621,93123623,93023625,89923627,88023629,87023631,85523633,84723635,83023637,84723639,93023641,93123643,93123645,93123647,93123649,93123651,93123653,93123655,93123657,93123659,93123661,93123663,93123665,93123667,93123669,93123671,93123673,93123675,93023677,92523679,88823681,88523683,91523685,90523687,91423689,89123691,89223693,86923695,84923698,83523700,80823702,77723704,75423706,73523708,74123710,72423712,72423714,72523716,75923718,81523720,81423722,84323724,90023726,88623728,85423730,84323732,83323734,87123736,91623738,91623741,93123743,91923745,88423747,85423749,84823751,86823753,85623755,87723757,89823759,87823761,91923763,93023765,93123767,93123769,93123771,93123773,93123775,92723777,92023779,93123781,93123783,93123785,93123787,93123789,93123791,93023793,92523795,92823797,90223799,91023801,89623803,87723805,84123807,80923809,79223811,76123813,73023815,70523817,69423819,68623821,66423823,65223826,62723828,62623830,62823832,63623834,71423836,88523838,91523840,93123842,93123844,93123846,93123848,93123850,93123852,93123854,93123856,93123858,92423860,88123862,85023864,83123866,82023869,82923871,85023873,82923875,84723877,84423879,81123881,78223883,75523885,73423887,73423889,72123891,72523893,71523895,69423897,68523899,67923901,66923903,65623905,64423907,65523909,71223911,72823913,73723915,84623917,90223919,87223921,83823923,80723925,79423927,80823929,79323931,78323933,78323935,75423937,72323939,70023941,67823943,65123945,63223947,61423949,59123951,58223954,66323956,74423958,74623960,81823962,87223964,85923966,82623968,81823970,80523972,77723974,81123976,81723978,82323980,86723982,86223984,83123986,83623988,82023990,78523992,75823994,76123997,78423999,76624001,78024003,78724005,75624007,72824009,70624011,69324013,69424015,69924017,68124019,67124021,66824023,64724025,66324027,67724029,65824031,68124033,70624035,68824037,66424039,65024041,63824043,64024045,63224047,62124049,60524051,58524053,60924055,63124057,61624059,62124061,63024063,61224065,61724067,62524069,60624071,59024073,57124075,55324077,53424079,52324082,52224084,51224086,52424088,53324090,52524092,56024094,57424096,56224098,58424100,67124102,70924104,73424106,85324108,93124110,92824112,90424114,89324116,88124118,84724120,82124122,79324125,75924127,73024129,70224131,67424133,64624135,62124137,60624139,59824141,57924143,56124145,54524147,52124149,50024151,49024153,47324155,45724157,44124159,42824161,42524163,46124165,50024167,50824169,50224171,54624173,59024175,59524177,57924179,57124181,56524183,54424185,52824187,51324189,52724191,52624193,52924195,55524197,54824199,52624201,50424203,48924205,47224207,45324210,43624212,41924214,40424216,38824218,37324220,36024222,34624224,33224226,31924228,30524230,29224232,27924234,26724236,25524238,25424240,26024242,25924244,25624246,26224248,26424250,29624253,29924255,32124257,36024259,36324261,36424263,36724265,35724267,36024269,36224271,35024273,33524275,32024277,30724279,29424281,28324283,27224285,26224287,25324289,24524291,23624293,22824295,22324297,21424299,20524301,19824303,19224305,18524307,17824309,17124311,16324313,15724315,15024317,14424319,13824321,13224323,12724325,12224327,11724329,11324331,10824333,10424335,10024338,9624340,9224342,8824344,8524346,8224348,7924350,7624352,7324354,7024356,6824358,6524360,6324362,6124364,5924366,5624368,5524370,5324372,5224374,5024376,4924378,4824381,4624383,4524385,4424387,4324389,4124391,4024393,4024395,4024397,3824399,3724401,3724403,3624405,3524407,3424409,3624411,3624413,3924415,4124417,4224419,4524421,4424423,4424425,4524427,4524429,4424431,4524433,4324435,4624437,4824439,4724441,4724443,5124445,5324447,5224449,5124451,5024453,5024455,5024457,4824459,4924461,5124463,5224466,5124468,5124470,5224472,5124474,4924476,4824478,4724480,4624482,4524484,4424486,4224488,4124490,4024492,4024494,3924496,4124498,4224500,4124502,4024504,4124506,4224509,4124511,4424513,8624515,13424517,14324519,15024521,14924523,15024525,15024527,14424529,14324531,14424533,14024535,13924537,13424539,13124541,13124543,12724545,12224547,11724549,11524551,11424553,11124555,10724557,10624559,10324561,10124563,9824565,9624567,9524569,9424571,9524573,9524575,9424577,9224579,9124581,9424583,9524585,9124587,9024589,8924591,8724594,8524596,8424598,8324600,8124602,7924604,7724606,7424608,7424610,7624612,7724614,8124616,8124618,8224620,8224622,8124624,8024626,8124628,8224630,8124632,8024634,7724637,7724639,7724641,8024643,8024645,7824647,7524649,7324651,7224653,7324655,21624657,22924659,24724661,25424663,25024665,25324667,25624669,25124671,24224673,23624675,23224677,22724679,22324681,21624683,20924685,20524687,20024689,19124691,18724693,18224695,17524697,17324699,16824701,16824703,16724705,16424707,15924709,15224711,14824713,14224715,13724717,13324719,12924722,12524724,12524726,12924728,12824730,12724732,12424734,12024736,11624738,11524740,11324742,11024744,11124746,11124748,11024750,10624752,10724754,10924756,11124758,10724760,10624762,10324765,10824767,10624769,10524771,10624773,10224775,10024777,10524779,10924781,11124783,13024785,13024787,13324789,13324791,12824793,12824795,12424797,12324799,12324801,12124803,11824805,11624807,11724809,11324811,11424813,11224815,11024817,10624819,11024821,10924823,11324825,11724827,11624829,11224831,11524833,11124835,10924837,10724839,10424841,10024843,10124845,9824847,10624850,11324852,11824854,12324856,12124858,11724860,11324862,10924864,10424866,10124868,9824870,9424872,9024874,8724876,8424878,8124880,7924882,7924884,7724886,7524888,7324890,7324893,7324895,7024897,6824899,6624901,7824903,9324905,9524907,10524909,12624911,13724913,13524915,14424917,15624919,15924921,15724923,15924925,15724927,15724929,17324931,19324933,19424935,20024937,23624939,27024941,27424943,26324945,25424947,24524949,24224951,24524953,26824955,30424957,31724959,32624961,35624963,35524965,35024967,33824969,33024971,32424973,31924975,32624978,33824980,33624982,39224984,45324986,45324988,47524990,49724992,48824994,47424996,48424998,48925000,48025002,46725004,45725006,44125008,42725010,47925012,56125014,57425016,59525018,66225021,68325023,67625025,68025027,68625029,68225031,66025033,66025035,66825037,66625039,66925041,70025043,73525045,72525047,78425049,85125051,84225053,82925055,79825057,76825059,76625061,78725063,79125065,76725067,73425069,72925071,77425073,77625075,82425077,93125079,93125081,93125083,93125085,93125087,93025089,92225091,93125093,93125095,93125097,93125099,93125101,93125103,93125106,93125108,93125110,93125112,93125114,93125116,93125118,93125120,93125122,93125124,93125126,93125128,93125130,93125132,93125134,93125136,93125138,93125140,93125142,93125144,93125146,93125149,93125151,93125153,93125155,93125157,93125159,93125161,93125163,93125165,93125167,93125169,93125171,93225173,93225175,93225177,93125179,93125181,93125183,93225185,93125187,93125189,93225191,93225193,93225195,93225197,93125199,93125201,93125203,93225205,93125207,93125209,93125211,93225213,93225215,93125217,93125219,93125221,93125223,93125225,93125227,93125229,93125231,93125234,93125236,93125238,93125240,93125242,93125244,93125246,93125248,93125250,93125252,93125254,93125256,93225258,93125260,93125262,93125264,93125266,93125268,93225270,93125272,93125274,93225277,93225279,93125281,93225283,93125285,93125287,93125289,93125291,93125293,93125295,93125297,93125299,93125301,93125303,93225305,93125307,93125309,93125311,93125313,93125315,93125317,93125319,93225321,93125323,93225325,93125327,93125329,93125331,93225333,93125335,93125337,93125339,93125341,93125343,93125345,93125347,93125349,93125351,93225353,93225355,93125357,93125359,93125362,93125364,93225366,93125368,93125370,93125372,93225374,93125376,93225378,93225380,93125382,93125384,93125386,93125388,93225390,93125392,93225394,93125396,93125398,93125400,93125402,93125405,93125407,93125409,93125411,93125413,93225415,93125417,93125419,93225421,93125423,93225425,93125427,93125429,93125431,93125433,93125435,93225437,93125439,93125441,93225443,93125445,93125447,93225449,93125451,93125453,93125455,93225457,93125459,93125461,93125463,93125465,93125467,93225469,93225471,93125473,93225475,93225477,93125479,93225481,93225483,93125485,93225487,93225490,93125492,93125494,93125496,93125498,93225500,93225502,93225504,93125506,93125508,93125510,93225512,93225514,93225516,93225518,93125520,93225522,93225524,93125526,93125528,93225530,93125533,93225535,93125537,93125539,93125541,93225543,93125545,93125547,93225549,93125551,93125553,93125555,93125557,93225559,93225561,93125563,93225565,93125567,93125569,93125571,93125573,93125575,93225577,93125579,93125581,93125583,93125585,93125587,93225589,93225591,93125593,93125595,93125597,93125599,93125601,93125603,93125605,93225607,93125609,93225611,93125613,93225615,93125618,93125620,93225622,93225624,93125626,93125628,93225630,93125632,93125634,93125636,93125638,93125640,93125642,93125644,93125646,93125648,93125650,93125652,93125654,93125656,93125658,93125661,93125663,93125665,93125667,93125669,93125671,93125673,93125675,93125677,93125679,93125681,93125683,93125685,93125687,93125689,93125691,93125693,93125695,93125697,93125699,93125701,93125703,93125705,93125707,93125709,93125711,93125713,93125715,93125717,93125719,93125721,93125723,93125725,93125727,93125729,93125731,93125733,93125735,93125737,93125739,93125741,93125743,93125746,93125748,93125750,93125752,93125754,93125756,93125758,93125760,93025762,92025764,89125766,87425768,85425770,81825772,78125774,78025776,76425778,77025780,77225782,76125784,74225786,71425789,68325791,65425793,63225795,62225797,62525799,65725801,66625803,74725805,76225807,76025809,74425811,76725813,76225815,79825817,79825819,77425821,75125823,72025825,69325827,67125829,65325831,64425833,62325835,60825837,59425839,58425841,58025843,56425845,54125847,52125849,52225851,50825853,50425855,51425857,55725859,55925861,56425863,57025865,57925867,59625869,59325871,63625874,64225876,64025878,64325880,64525882,62625884,60825886,58625888,56825890,57625892,63625894,