Timestamp (ms),EMG Value
0,35
2,34
4,34
6,33
8,32
10,32
12,32
14,31
16,33
18,35
20,36
22,36
24,40
26,39
28,39
30,39
32,38
34,38
36,39
38,40
40,38
42,40
44,41
46,42
48,42
50,42
52,43
54,46
56,48
58,52
61,52
63,51
65,54
67,56
69,61
71,63
73,62
75,66
77,67
79,65
81,70
83,68
85,66
87,73
89,74
91,75
93,73
95,72
97,69
99,67
101,65
103,64
105,62
107,63
109,67
111,65
113,64
115,63
117,62
119,65
121,65
123,65
125,70
127,75
129,75
131,74
133,83
135,85
137,82
139,80
141,78
143,76
146,73
148,71
150,70
152,70
154,71
156,73
158,75
160,75
162,78
164,76
166,74
168,75
170,76
172,74
174,71
176,70
178,69
180,67
182,70
184,69
186,67
189,65
191,64
193,62
195,62
197,62
199,63
201,63
203,62
205,62
207,65
209,66
211,67
213,71
215,73
217,73
219,72
221,72
223,72
225,76
227,75
229,73
231,73
233,75
235,77
237,77
239,77
241,78
243,82
245,81
247,84
249,81
251,84
253,89
255,94
257,98
259,98
261,95
263,97
265,94
267,92
269,99
271,105
274,112
276,116
278,126
280,124
282,120
284,117
286,115
288,112
290,109
292,105
294,102
296,100
298,102
300,103
302,114
304,115
306,113
308,112
310,111
312,112
314,114
317,114
319,111
321,109
323,114
325,115
327,121
329,128
331,129
333,129
335,129
337,126
339,123
341,121
343,117
345,113
347,115
349,114
351,111
353,111
355,108
357,104
359,102
361,100
363,97
365,96
367,96
369,95
371,92
373,89
375,87
377,88
379,85
381,82
383,83
385,83
387,81
389,79
391,79
393,79
395,90
397,94
399,94
402,99
404,97
406,94
408,92
410,91
412,95
414,97
416,95
418,94
420,93
422,94
424,90
426,87
428,84
430,82
432,80
434,81
436,81
438,83
440,83
442,87
445,87
447,87
449,84
451,83
453,80
455,78
457,75
459,73
461,71
463,69
465,67
467,68
469,69
471,67
473,66
475,64
477,62
479,62
481,61
483,64
485,66
487,65
489,68
491,79
493,94
495,96
497,97
499,109
501,113
503,112
505,118
507,120
509,119
511,129
513,140
515,139
517,147
519,151
521,146
523,146
525,146
527,158
530,163
532,161
534,180
536,210
538,222
540,216
542,216
544,222
546,227
548,221
550,215
552,230
554,249
556,257
558,252
560,251
562,262
564,280
566,291
568,284
570,320
573,375
575,378
577,395
579,447
581,487
583,480
585,496
587,497
589,493
591,503
593,489
595,491
597,497
599,481
601,468
603,492
605,541
607,544
609,584
611,649
613,661
615,648
617,633
619,645
621,649
623,634
625,643
627,649
629,646
631,622
633,608
635,598
637,578
639,558
641,559
643,570
645,593
647,616
649,604
651,635
653,657
655,649
658,668
660,675
662,660
664,632
666,622
668,639
670,690
672,733
674,720
676,731
678,751
680,737
682,722
684,720
686,700
688,669
690,644
692,642
694,693
696,758
698,751
701,788
703,821
705,812
707,781
709,777
711,762
713,762
715,771
717,750
719,751
721,741
723,725
725,735
727,721
729,761
731,789
733,772
735,795
737,816
739,792
741,774
743,757
745,734
747,706
749,688
751,681
753,692
755,699
757,694
759,731
761,743
763,727
765,707
767,717
769,735
771,756
773,747
775,753
777,835
779,901
781,887
783,863
786,837
788,806
790,788
792,794
794,851
796,931
798,931
800,931
802,931
804,931
806,931
808,931
810,931
812,931
814,931
816,931
818,931
820,931
822,931
824,931
826,931
829,931
831,931
833,931
835,931
837,931
839,931
841,931
843,931
845,931
847,931
849,931
851,931
853,931
855,931
857,931
859,931
861,931
863,931
865,931
867,931
869,931
871,931
873,931
875,931
877,931
879,923
881,897
883,926
885,931
887,931
889,931
891,920
893,909
895,925
897,902
899,921
901,916
903,930
905,931
907,931
909,931
911,931
914,931
916,931
918,931
920,931
922,931
924,931
926,931
928,931
930,931
932,931
934,931
936,931
938,931
940,931
942,931
944,931
946,931
948,931
950,931
952,931
954,931
957,931
959,931
961,931
963,931
965,931
967,931
969,931
971,931
973,931
975,931
977,931
979,931
981,931
983,931
985,931
987,931
989,931
991,931
993,931
995,931
997,931
999,931
1001,931
1003,931
1005,931
1007,931
1009,931
1011,931
1013,931
1015,931
1017,931
1019,931
1021,931
1023,931
1025,931
1027,931
1029,931
1031,931
1033,931
1035,931
1037,931
1039,931
1042,931
1044,931
1046,931
1048,931
1050,931
1052,931
1054,931
1056,931
1058,931
1060,931
1062,931
1064,931
1066,931
1068,931
1070,931
1072,931
1074,931
1076,931
1078,931
1080,931
1082,931
1085,931
1087,931
1089,931
1091,931
1093,931
1095,931
1097,931
1099,931
1101,931
1103,931
1105,931
1107,931
1109,931
1111,931
1113,931
1115,931
1117,931
1119,931
1121,931
1123,931
1125,931
1127,931
1129,931
1131,931
1133,931
1135,931
1137,931
1139,931
1141,931
1143,931
1145,931
1147,931
1149,931
1151,931
1153,931
1155,931
1157,931
1159,931
1161,931
1163,931
1165,931
1167,932
1170,931
1172,931
1174,931
1176,931
1178,931
1180,931
1182,931
1184,931
1186,932
1188,931
1190,931
1192,931
1194,931
1196,931
1198,931
1200,931
1202,931
1204,931
1206,931
1208,931
1210,931
1213,931
1215,931
1217,931
1219,931
1221,931
1223,931
1225,931
1227,931
1229,931
1231,931
1233,931
1235,931
1237,931
1239,931
1241,931
1243,931
1245,931
1247,932
1249,931
1251,931
1253,931
1255,931
1257,931
1259,931
1261,931
1263,931
1265,931
1267,931
1269,931
1271,931
1273,931
1275,931
1277,931
1279,931
1281,931
1283,931
1285,931
1287,932
1289,931
1291,931
1293,931
1295,931
1298,931
1300,931
1302,931
1304,931
1306,931
1308,931
1310,931
1312,931
1314,931
1316,931
1318,931
1320,931
1322,931
1324,931
1326,931
1328,931
1330,931
1332,931
1334,931
1336,931
1338,931
1341,931
1343,931
1345,931
1347,931
1349,931
1351,931
1353,931
1355,931
1357,931
1359,931
1361,931
1363,931
1365,931
1367,931
1369,931
1371,931
1373,931
1375,931
1377,931
1379,931
1381,931
1383,931
1385,931
1387,931
1389,931
1391,931
1393,931
1395,931
1397,931
1399,931
1401,931
1403,931
1405,931
1407,931
1409,931
1411,931
1413,931
1415,931
1417,931
1419,931
1421,931
1423,931
1426,931
1428,931
1430,931
1432,931
1434,931
1436,931
1438,931
1440,931
1442,931
1444,931
1446,931
1448,931
1450,931
1452,931
1454,931
1456,928
1458,911
1460,906
1462,931
1464,931
1466,931
1469,931
1471,931
1473,931
1475,931
1477,931
1479,931
1481,918
1483,877
1485,850
1487,824
1489,797
1491,773
1493,754
1495,725
1497,695
1499,665
1501,638
1503,611
1505,586
1507,564
1509,544
1511,532
1513,509
1515,491
1517,549
1519,560
1521,628
1523,631
1525,604
1527,594
1529,575
1531,581
1533,576
1535,577
1537,555
1539,532
1541,523
1543,506
1545,487
1547,467
1549,454
1551,493
1554,500
1556,531
1558,544
1560,544
1562,539
1564,551
1566,548
1568,544
1570,571
1572,581
1574,598
1576,608
1578,597
1580,583
1582,586
1584,571
1586,555
1588,540
1590,526
1592,504
1594,498
1597,487
1599,500
1601,492
1603,484
1605,471
1607,458
1609,502
1611,515
1613,574
1615,604
1617,619
1619,612
1621,635
1623,644
1625,642
1627,636
1629,636
1631,615
1633,592
1635,572
1637,556
1639,551
1641,577
1643,585
1645,597
1647,631
1649,626
1651,613
1653,592
1655,585
1657,564
1659,540
1661,523
1663,500
1665,491
1667,493
1669,509
1671,498
1673,515
1675,526
1677,564
1679,595
1682,618
1684,661
1686,740
1688,737
1690,730
1692,711
1694,693
1696,665
1698,648
1700,655
1702,656
1704,657
1706,657
1708,685
1710,672
1712,677
1714,662
1716,639
1718,624
1720,611
1722,666
1725,666
1727,707
1729,702
1731,681
1733,664
1735,645
1737,688
1739,675
1741,656
1743,638
1745,671
1747,680
1749,684
1751,670
1753,663
1755,641
1757,627
1759,607
1761,653
1763,703
1765,710
1767,746
1769,784
1771,754
1773,721
1775,691
1777,665
1779,654
1781,630
1783,618
1785,597
1787,582
1789,580
1791,569
1793,570
1795,546
1797,551
1799,580
1801,588
1803,655
1805,695
1807,681
1810,672
1812,677
1814,696
1816,682
1818,698
1820,685
1822,689
1824,697
1826,679
1828,692
1830,686
1832,669
1834,643
1836,615
1838,588
1840,564
1842,548
1844,529
1846,522
1848,522
1850,502
1853,494
1855,478
1857,465
1859,462
1861,449
1863,440
1865,473
1867,494
1869,525
1871,602
1873,608
1875,614
1877,611
1879,605
1881,630
1883,612
1885,631
1887,649
1889,635
1891,657
1893,653
1895,644
1897,617
1899,591
1901,565
1903,551
1905,536
1907,519
1909,506
1911,531
1913,554
1915,544
1917,558
1919,545
1921,537
1923,553
1925,558
1927,542
1929,524
1931,511
1933,538
1935,568
1938,581
1940,577
1942,609
1944,610
1946,659
1948,661
1950,733
1952,794
1954,766
1956,733
1958,703
1960,685
1962,673
1964,681
1966,666
1968,644
1970,624
1972,597
1974,571
1976,545
1978,522
1981,501
1983,481
1985,460
1987,455
1989,511
1991,548
1993,554
1995,604
1997,602
1999,582
2001,567
2003,543
2005,525
2007,504
2009,494
2011,488
2013,471
2015,484
2017,554
2019,607
2021,606
2023,630
2025,695
2027,728
2029,729
2031,704
2033,680
2035,653
2037,625
2039,597
2041,571
2043,548
2045,528
2047,511
2049,493
2051,476
2053,467
2055,454
2057,434
2059,418
2061,408
2063,398
2066,416
2068,468
2070,477
2072,485
2074,528
2076,549
2078,554
2080,541
2082,523
2084,504
2086,491
2088,489
2090,473
2092,452
2094,439
2096,430
2098,447
2100,501
2102,522
2104,542
2106,611
2109,629
2111,608
2113,588
2115,563
2117,544
2119,528
2121,512
2123,497
2125,482
2127,470
2129,457
2131,443
2133,436
2135,427
2137,412
2139,415
2141,412
2143,398
2145,384
2147,383
2149,431
2151,465
2153,507
2155,510
2157,567
2159,622
2161,624
2163,605
2165,587
2167,571
2169,564
2171,543
2173,529
2175,510
2177,492
2179,483
2181,487
2183,496
2185,487
2187,483
2189,490
2191,491
2194,494
2196,487
2198,467
2200,448
2202,431
2204,416
2206,403
2208,391
2210,382
2212,371
2214,356
2216,341
2218,327
2220,314
2222,302
2224,289
2226,277
2228,266
2230,273
2232,328
2234,369
2237,373
2239,426
2241,467
2243,461
2245,442
2247,424
2249,422
2251,421
2253,407
2255,403
2257,408
2259,402
2261,392
2263,392
2265,381
2267,365
2269,350
2271,335
2273,324
2275,322
2277,313
2279,308
2281,305
2283,295
2285,282
2287,271
2289,259
2291,248
2293,240
2295,232
2297,222
2299,213
2301,205
2303,197
2305,189
2307,181
2309,174
2311,167
2313,160
2315,154
2317,148
2319,142
2322,136
2324,131
2326,125
2328,120
2330,116
2332,111
2334,111
2336,111
2338,106
2340,104
2342,107
2344,110
2346,107
2348,110
2350,110
2352,108
2354,114
2356,116
2358,113
2360,112
2362,112
2365,111
2367,111
2369,115
2371,114
2373,113
2375,111
2377,108
2379,105
2381,101
2383,97
2385,94
2387,94
2389,94
2391,91
2393,90
2395,87
2397,85
2399,84
2401,85
2403,87
2405,85
2407,84
2409,82
2411,79
2413,82
2415,87
2417,86
2419,84
2421,89
2423,88
2425,86
2427,84
2429,82
2431,80
2433,78
2435,77
2437,75
2439,73
2441,72
2443,70
2445,73
2447,71
2450,72
2452,73
2454,72
2456,73
2458,72
2460,72
2462,71
2464,72
2466,72
2468,71
2470,68
2472,70
2474,69
2476,70
2478,68
2480,69
2482,73
2484,72
2486,77
2488,75
2490,73
2493,73
2495,77
2497,79
2499,88
2501,87
2503,85
2505,88
2507,86
2509,83
2511,83
2513,87
2515,88
2517,89
2519,90
2521,88
2523,96
2525,101
2527,101
2529,100
2531,101
2533,102
2535,105
2537,103
2539,105
2541,102
2543,105
2545,103
2547,101
2549,103
2551,104
2553,104
2555,100
2557,102
2559,110
2561,124
2563,137
2565,144
2567,144
2569,140
2571,135
2573,134
2575,131
2578,128
2580,128
2582,129
2584,128
2586,128
2588,130
2590,126
2592,123
2594,120
2596,117
2598,116
2600,118
2602,120
2604,117
2606,123
2608,127
2610,124
2612,124
2614,123
2616,127
2618,123
2621,119
2623,119
2625,115
2627,124
2629,128
2631,130
2633,130
2635,134
2637,135
2639,135
2641,141
2643,146
2645,156
2647,151
2649,148
2651,144
2653,141
2655,137
2657,140
2659,150
2661,153
2663,153
2665,169
2667,171
2669,167
2671,171
2673,180
2675,181
2677,183
2679,183
2681,177
2683,174
2685,177
2687,178
2689,171
2691,164
2693,157
2695,155
2697,155
2699,151
2701,147
2703,143
2706,139
2708,134
2710,133
2712,130
2714,132
2716,131
2718,129
2720,127
2722,124
2724,123
2726,119
2728,114
2730,110
2732,105
2734,101
2736,97
2738,94
2740,90
2742,87
2744,84
2746,81
2749,78
2751,75
2753,73
2755,70
2757,71
2759,70
2761,71
2763,71
2765,69
2767,67
2769,66
2771,65
2773,67
2775,67
2777,65
2779,63
2781,63
2783,64
2785,65
2787,67
2789,69
2791,67
2793,67
2795,74
2797,81
2799,80
2801,80
2803,80
2805,80
2807,88
2809,91
2811,116
2813,133
2815,133
2817,134
2819,138
2821,135
2823,139
2825,142
2827,174
2829,206
2831,205
2834,208
2836,226
2838,251
2840,270
2842,272
2844,263
2846,269
2848,292
2850,307
2852,305
2854,301
2856,292
2858,295
2860,289
2862,289
2864,284
2866,292
2868,309
2870,310
2872,303
2874,316
2877,324
2879,316
2881,319
2883,316
2885,313
2887,315
2889,315
2891,304
2893,306
2895,304
2897,311
2899,325
2901,322
2903,353
2905,378
2907,373
2909,364
2911,352
2913,355
2915,352
2917,381
2919,402
2921,420
2923,420
2925,441
2927,457
2929,458
2931,447
2933,473
2935,484
2937,473
2939,470
2941,456
2943,445
2945,452
2947,453
2949,435
2951,417
2953,407
2955,399
2957,387
2959,375
2962,399
2964,437
2966,436
2968,461
2970,500
2972,503
2974,495
2976,493
2978,484
2980,515
2982,541
2984,531
2986,538
2988,576
2990,648
2992,672
2994,694
2996,777
2998,784
3000,782
3002,803
3005,787
3007,778
3009,784
3011,771
3013,758
3015,782
3017,772
3019,764
3021,784
3023,779
3025,789
3027,829
3029,819
3031,825
3033,822
3035,810
3037,850
3039,868
3041,862
3043,904
3045,920
3047,920
3049,901
3051,923
3053,931
3055,930
3057,931
3059,931
3061,931
3063,930
3065,930
3067,931
3069,931
3071,931
3073,931
3075,931
3077,931
3079,931
3081,931
3083,931
3085,931
3087,931
3090,931
3092,931
3094,931
3096,931
3098,931
3100,931
3102,931
3104,931
3106,931
3108,931
3110,931
3112,931
3114,931
3116,931
3118,931
3120,931
3122,931
3124,931
3126,931
3128,931
3130,931
3133,931
3135,931
3137,931
3139,931
3141,931
3143,931
3145,931
3147,931
3149,931
3151,931
3153,931
3155,931
3157,931
3159,931
3161,931
3163,931
3165,931
3167,931
3169,931
3171,931
3173,931
3175,931
3177,931
3179,931
3181,931
3183,931
3185,931
3187,931
3189,931
3191,931
3193,931
3195,931
3197,931
3199,931
3201,931
3203,931
3205,931
3207,931
3209,931
3211,931
3213,931
3215,931
3218,931
3220,931
3222,931
3224,931
3226,931
3228,931
3230,931
3232,931
3234,931
3236,931
3238,931
3240,931
3242,931
3244,931
3246,931
3248,931
3250,931
3252,931
3254,931
3256,931
3258,931
3261,931
3263,931
3265,931
3267,931
3269,931
3271,931
3273,931
3275,931
3277,931
3279,931
3281,931
3283,931
3285,931
3287,931
3289,931
3291,931
3293,931
3295,931
3297,931
3299,931
3301,931
3303,931
3305,931
3307,931
3309,931
3311,931
3313,931
3315,931
3317,931
3319,931
3321,931
3323,931
3325,931
3327,931
3329,931
3331,931
3333,931
3335,931
3337,931
3339,931
3341,931
3343,931
3346,931
3348,931
3350,931
3352,931
3354,932
3356,931
3358,932
3360,931
3362,932
3364,931
3366,931
3368,931
3370,931
3372,931
3374,931
3376,931
3378,931
3380,931
3382,931
3384,931
3386,931
3389,931
3391,931
3393,931
3395,931
3397,931
3399,932
3401,931
3403,931
3405,931
3407,931
3409,931
3411,931
3413,931
3415,931
3417,931
3419,931
3421,931
3423,931
3425,931
3427,931
3429,931
3431,931
3433,931
3435,931
3437,931
3439,931
3441,931
3443,931
3445,931
3447,931
3449,931
3451,931
3453,931
3455,931
3457,931
3459,931
3461,931
3463,931
3465,931
3467,931
3469,931
3471,931
3474,931
3476,931
3478,931
3480,931
3482,931
3484,931
3486,931
3488,931
3490,931
3492,931
3494,931
3496,931
3498,931
3500,931
3502,931
3504,931
3506,931
3508,931
3510,931
3512,931
3514,931
3517,931
3519,931
3521,931
3523,931
3525,931
3527,931
3529,931
3531,931
3533,931
3535,931
3537,931
3539,931
3541,931
3543,931
3545,932
3547,931
3549,931
3551,931
3553,931
3555,931
3557,931
3559,931
3561,931
3563,931
3565,931
3567,931
3569,931
3571,931
3573,931
3575,931
3577,931
3579,931
3581,931
3583,931
3585,931
3587,931
3589,931
3591,932
3593,931
3595,931
3597,931
3599,932
3602,931
3604,931
3606,931
3608,931
3610,931
3612,931
3614,931
3616,931
3618,931
3620,931
3622,931
3624,931
3626,931
3628,931
3630,931
3632,931
3634,931
3636,931
3638,931
3640,931
3642,931
3645,931
3647,931
3649,931
3651,931
3653,931
3655,931
3657,931
3659,931
3661,931
3663,931
3665,931
3667,931
3669,931
3671,931
3673,931
3675,931
3677,931
3679,931
3681,931
3683,931
3685,931
3687,931
3689,931
3691,931
3693,931
3695,931
3697,931
3699,931
3701,931
3703,931
3705,931
3707,930
3709,915
3711,880
3713,847
3715,820
3717,790
3719,780
3721,754
3723,732
3725,701
3727,670
3730,642
3732,615
3734,590
3736,575
3738,561
3740,542
3742,532
3744,515
3746,508
3748,523
3750,534
3752,549
3754,553
3756,614
3758,656
3760,642
3762,625
3764,617
3766,618
3768,604
3770,611
3773,588
3775,565
3777,547
3779,526
3781,504
3783,486
3785,465
3787,446
3789,429
3791,412
3793,402
3795,388
3797,393
3799,386
3801,410
3803,439
3805,431
3807,454
3809,467
3811,476
3813,501
3815,506
3817,492
3819,476
3821,525
3823,545
3825,533
3827,532
3829,565
3831,568
3833,592
3835,573
3837,551
3839,527
3841,510
3843,498
3845,483
3847,466
3849,453
3851,440
3853,429
3855,452
3858,471
3860,526
3862,529
3864,546
3866,529
3868,516
3870,532
3872,531
3874,553
3876,549
3878,539
3880,527
3882,544
3884,540
3886,577
3888,582
3890,564
3892,546
3894,547
3896,531
3898,529
3901,515
3903,497
3905,477
3907,460
3909,461
3911,448
3913,441
3915,433
3917,440
3919,442
3921,429
3923,435
3925,450
3927,452
3929,444
3931,442
3933,469
3935,493
3937,500
3939,481
3941,460
3943,451
3945,435
3947,453
3949,467
3951,476
3953,462
3955,466
3957,506
3959,549
3961,550
3963,549
3965,530
3967,523
3969,502
3971,489
3973,482
3975,485
3977,500
3979,482
3981,480
3983,475
3986,479
3988,475
3990,469
3992,464
3994,469
3996,459
3998,445
4000,431
4002,414
4004,415
4006,416
4008,404
4010,392
4012,400
4014,422
4016,430
4018,425
4020,452
4022,463
4024,451
4026,438
4029,454
4031,460
4033,443
4035,444
4037,438
4039,437
4041,421
4043,418
4045,419
4047,430
4049,438
4051,461
4053,458
4055,513
4057,512
4059,547
4061,558
4063,601
4065,604
4067,618
4069,643
4071,642
4073,619
4075,612
4077,647
4079,643
4081,650
4083,675
4085,653
4087,638
4089,633
4091,672
4093,663
4095,695
4097,722
4099,701
4101,673
4103,643
4105,616
4107,600
4109,608
4111,629
4114,609
4116,595
4118,599
4120,577
4122,563
4124,546
4126,527
4128,504
4130,503
4132,503
4134,486
4136,484
4138,476
4140,492
4142,533
4144,575
4146,591
4148,662
4150,707
4152,693
4154,663
4157,634
4159,610
4161,587
4163,564
4165,547
4167,541
4169,522
4171,508
4173,494
4175,480
4177,478
4179,481
4181,511
4183,509
4185,531
4187,560
4189,556
4191,575
4193,566
4195,546
4197,557
4199,566
4201,556
4203,560
4205,579
4207,562
4209,546
4211,558
4213,595
4215,629
4217,645
4219,689
4221,683
4223,702
4225,728
4227,711
4229,681
4231,659
4233,638
4235,618
4237,599
4239,579
4242,562
4244,547
4246,528
4248,508
4250,485
4252,469
4254,471
4256,473
4258,472
4260,455
4262,459
4264,453
4266,487
4268,489
4270,529
4272,575
4274,572
4276,606
4278,642
4280,636
4282,693
4285,766
4287,770
4289,765
4291,740
4293,727
4295,701
4297,676
4299,664
4301,655
4303,642
4305,617
4307,593
4309,574
4311,551
4313,526
4315,503
4317,482
4319,464
4321,446
4323,431
4325,450
4327,494
4329,587
4331,601
4333,670
4335,782
4337,812
4339,781
4341,755
4343,737
4345,716
4347,689
4349,662
4351,637
4353,622
4355,622
4357,639
4359,668
4361,656
4363,668
4365,723
4367,772
4370,779
4372,751
4374,725
4376,702
4378,682
4380,662
4382,643
4384,622
4386,602
4388,580
4390,557
4392,535
4394,512
4396,491
4398,472
4400,452
4402,433
4404,427
4406,421
4408,433
4410,483
4413,502
4415,527
4417,613
4419,661
4421,649
4423,626
4425,601
4427,583
4429,569
4431,553
4433,536
4435,518
4437,501
4439,481
4441,461
4443,443
4445,423
4447,405
4449,387
4451,371
4453,355
4455,347
4457,332
4459,320
4461,308
4463,297
4465,284
4467,272
4469,261
4471,250
4473,240
4475,230
4477,221
4479,212
4481,203
4483,196
4485,188
4487,181
4489,176
4491,170
4493,163
4495,156
4498,150
4500,144
4502,139
4504,135
4506,130
4508,126
4510,122
4512,120
4514,118
4516,114
4518,113
4520,109
4522,105
4524,101
4526,98
4528,98
4530,98
4532,95
4534,92
4536,89
4538,87
4541,84
4543,83
4545,83
4547,80
4549,80
4551,81
4553,84
4555,84
4557,82
4559,81
4561,80
4563,86
4565,84
4567,83
4569,80
4571,81
4573,79
4575,78
4577,84
4579,85
4581,94
4583,96
4585,94
4587,91
4589,89
4591,87
4593,86
4595,85
4597,83
4599,85
4601,90
4603,89
4605,87
4607,85
4609,86
4611,84
4613,83
4615,80
4617,80
4619,77
4621,80
4623,81
4626,81
4628,79
4630,76
4632,78
4634,78
4636,79
4638,80
4640,79
4642,93
4644,104
4646,112
4648,128
4650,130
4652,134
4654,138
4656,144
4658,148
4660,149
4662,147
4664,144
4666,141
4669,141
4671,149
4673,164
4675,177
4677,182
4679,178
4681,173
4683,168
4685,164
4687,160
4689,159
4691,157
4693,159
4695,165
4697,163
4699,163
4701,162
4703,160
4705,163
4707,176
4709,176
4711,180
4713,175
4715,169
4717,165
4719,159
4721,166
4723,165
4725,166
4727,159
4729,152
4731,146
4733,142
4735,141
4737,137
4739,136
4741,134
4743,134
4745,132
4747,138
4749,137
4751,134
4754,129
4756,128
4758,136
4760,134
4762,129
4764,128
4766,133
4768,130
4770,131
4772,130
4774,126
4776,126
4778,124
4780,121
4782,118
4784,116
4786,117
4788,124
4790,130
4792,145
4794,143
4797,141
4799,137
4801,133
4803,136
4805,135
4807,132
4809,127
4811,130
4813,137
4815,138
4817,143
4819,144
4821,142
4823,137
4825,133
4827,130
4829,127
4831,123
4833,118
4835,118
4837,118
4839,123
4841,123
4843,120
4845,118
4847,117
4849,112
4851,108
4853,103
4855,100
4857,97
4859,93
4861,90
4863,86
4865,83
4867,81
4869,78
4871,75
4873,74
4875,71
4877,70
4879,68
4882,67
4884,71
4886,73
4888,70
4890,68
4892,66
4894,64
4896,65
4898,65
4900,68
4902,66
4904,64
4906,62
4908,59
4910,58
4912,55
4914,54
4916,53
4918,57
4920,62
4922,62
4925,79
4927,100
4929,110
4931,110
4933,107
4935,109
4937,117
4939,120
4941,129
4943,149
4945,152
4947,179
4949,228
4951,248
4953,241
4955,237
4957,246
4959,265
4961,275
4963,271
4965,286
4967,289
4969,283
4971,274
4973,288
4975,306
4977,306
4979,307
4981,303
4983,318
4985,363
4987,377
4989,400
4991,472
4993,519
4995,509
4997,510
4999,512
5001,496
5003,496
5005,500
5007,485
5010,489
5012,499
5014,486
5016,476
5018,461
5020,455
5022,474
5024,478
5026,474
5028,470
5030,461
5032,457
5034,472
5036,514
5038,527
5040,511
5042,524
5044,571
5046,606
5048,594
5050,611
5053,615
5055,591
5057,568
5059,555
5061,539
5063,546
5065,559
5067,559
5069,616
5071,653
5073,642
5075,682
5077,745
5079,787
5081,792
5083,764
5085,734
5087,709
5089,702
5091,734
5093,880
5095,931
5097,931
5099,931
5101,931
5103,931
5105,931
5107,931
5109,931
5111,931
5113,931
5115,931
5117,931
5119,931
5121,931
5123,931
5125,931
5127,931
5129,931
5131,931
5133,931
5135,931
5138,931
5140,931
5142,931
5144,931
5146,931
5148,931
5150,931
5152,931
5154,931
5156,931
5158,931
5160,931
5162,931
5164,931
5166,931
5168,931
5170,931
5172,931
5174,931
5176,931
5178,931
5181,931
5183,931
5185,931
5187,931
5189,931
5191,931
5193,931
5195,931
5197,931
5199,931
5201,931
5203,931
5205,931
5207,931
5209,931
5211,931
5213,931
5215,931
5217,931
5219,931
5221,931
5223,931
5225,931
5227,931
5229,931
5231,931
5233,931
5235,931
5237,931
5239,931
5241,931
5243,931
5245,931
5247,931
5249,931
5251,931
5253,931
5255,931
5257,931
5259,931
5261,931
5263,931
5266,931
5268,931
5270,931
5272,931
5274,931
5276,931
5278,931
5280,931
5282,931
5284,931
5286,931
5288,931
5290,931
5292,931
5294,931
5296,931
5298,931
5300,931
5302,931
5304,931
5306,931
5309,931
5311,931
5313,931
5315,931
5317,931
5319,931
5321,931
5323,931
5325,931
5327,931
5329,931
5331,931
5333,931
5335,931
5337,931
5339,931
5341,931
5343,931
5345,931
5347,931
5349,931
5351,931
5353,931
5355,931
5357,931
5359,931
5361,931
5363,931
5365,931
5367,931
5369,931
5371,931
5373,931
5375,931
5377,931
5379,931
5381,931
5383,931
5385,931
5387,931
5389,931
5391,931
5394,931
5396,931
5398,931
5400,931
5402,931
5404,931
5406,931
5408,931
5410,931
5412,931
5414,931
5416,931
5418,931
5420,931
5422,931
5424,931
5426,931
5428,931
5430,931
5432,931
5434,931
5437,931
5439,931
5441,931
5443,931
5445,931
5447,931
5449,931
5451,931
5453,931
5455,931
5457,931
5459,931
5461,931
5463,931
5465,931
5467,931
5469,931
5471,931
5473,931
5475,931
5477,931
5479,931
5481,931
5483,931
5485,931
5487,931
5489,931
5491,931
5493,931
5495,931
5497,931
5499,931
5501,931
5503,931
5505,931
5507,931
5509,931
5511,931
5513,931
5515,931
5517,931
5519,931
5522,931
5524,931
5526,931
5528,931
5530,931
5532,931
5534,931
5536,931
5538,931
5540,931
5542,932
5544,931
5546,932
5548,931
5550,931
5552,931
5554,931
5556,931
5558,931
5560,931
5562,931
5565,931
5567,931
5569,931
5571,931
5573,931
5575,931
5577,931
5579,931
5581,931
5583,931
5585,931
5587,931
5589,931
5591,931
5593,931
5595,931
5597,931
5599,931
5601,931
5603,931
5605,931
5607,931
5609,931
5611,931
5613,931
5615,931
5617,931
5619,931
5621,931
5623,931
5625,931
5627,931
5629,931
5631,931
5633,931
5635,931
5637,931
5639,931
5641,931
5643,931
5645,931
5647,931
5650,931
5652,931
5654,931
5656,931
5658,931
5660,931
5662,931
5664,931
5666,931
5668,931
5670,931
5672,931
5674,931
5676,931
5678,931
5680,931
5682,931
5684,931
5686,931
5688,931
5690,931
5693,931
5695,931
5697,931
5699,931
5701,931
5703,931
5705,931
5707,931
5709,931
5711,931
5713,931
5715,931
5717,931
5719,931
5721,931
5723,931
5725,931
5727,931
5729,931
5731,931
5733,931
5735,931
5737,931
5739,931
5741,931
5743,931
5745,931
5747,931
5749,931
5751,931
5753,931
5755,931
5757,931
5759,931
5761,931
5763,931
5765,931
5767,931
5769,931
5771,931
5773,931
5775,931
5778,931
5780,931
5782,931
5784,931
5786,931
5788,931
5790,928
5792,891
5794,894
5796,912
5798,925
5800,899
5802,901
5804,896
5806,901
5808,882
5810,851
5812,843
5814,816
5816,804
5818,772
5821,741
5823,714
5825,690
5827,676
5829,655
5831,625
5833,606
5835,591
5837,590
5839,572
5841,563
5843,605
5845,649
5847,700
5849,735
5851,738
5853,737
5855,720
5857,711
5859,707
5861,689
5863,675
5865,662
5867,679
5869,664
5871,641
5873,616
5875,591
5877,568
5879,544
5881,524
5883,535
5885,547
5887,543
5889,573
5891,564
5893,558
5895,598
5897,607
5899,623
5901,671
5903,675
5906,661
5908,662
5910,689
5912,700
5914,741
5916,727
5918,696
5920,672
5922,726
5924,729
5926,770
5928,772
5930,741
5932,716
5934,695
5936,668
5938,657
5940,635
5942,631
5944,611
5946,586
5949,575
5951,553
5953,533
5955,609
5957,643
5959,715
5961,760
5963,728
5965,703
5967,691
5969,675
5971,655
5973,629
5975,616
5977,604
5979,581
5981,556
5983,534
5985,521
5987,511
5989,560
5991,574
5993,555
5995,556
5997,578
5999,627
6001,613
6003,593
6005,580
6007,560
6009,538
6011,521
6013,535
6015,580
6017,587
6019,607
6021,639
6023,671
6025,692
6027,674
6029,677
6031,678
6034,657
6036,640
6038,615
6040,594
6042,581
6044,565
6046,580
6048,661
6050,669
6052,746
6054,789
6056,766
6058,735
6060,724
6062,704
6064,679
6066,701
6068,834
6070,854
6072,931
6074,931
6077,931
6079,931
6081,931
6083,929
6085,909
6087,897
6089,860
6091,830
6093,793
6095,758
6097,778
6099,845
6101,849
6103,916
6105,916
6107,922
6109,891
6111,877
6113,867
6115,838
6117,804
6119,785
6121,760
6123,759
6125,740
6127,714
6129,748
6131,741
6133,771
6135,784
6137,841
6139,854
6141,931
6143,931
6145,931
6147,931
6149,931
6151,931
6153,931
6155,931
6157,931
6159,931
6162,931
6164,931
6166,931
6168,931
6170,931
6172,931
6174,931
6176,931
6178,931
6180,931
6182,930
6184,920
6186,890
6188,883
6190,867
6192,845
6194,830
6196,798
6198,772
6200,753
6202,729
6205,726
6207,707
6209,725
6211,749
6213,835
6215,843
6217,910
6219,931
6221,931
6223,930
6225,930
6227,929
6229,905
6231,898
6233,865
6235,839
6237,816
6239,792
6241,778
6243,752
6245,730
6247,723
6249,704
6251,674
6253,645
6255,619
6257,596
6259,593
6261,635
6263,679
6265,678
6267,737
6269,765
6271,744
6273,721
6275,717
6277,716
6279,712
6281,699
6283,724
6285,809
6287,812
6290,911
6292,931
6294,931
6296,931
6298,931
6300,931
6302,923
6304,890
6306,856
6308,826
6310,798
6312,769
6314,743
6316,717
6318,692
6320,665
6322,638
6324,610
6326,583
6328,556
6330,548
6333,595
6335,640
6337,629
6339,659
6341,672
6343,649
6345,635
6347,649
6349,664
6351,658
6353,634
6355,614
6357,592
6359,609
6361,644
6363,650
6365,641
6367,649
6369,644
6371,626
6373,619
6375,610
6377,634
6379,671
6381,657
6383,628
6385,603
6387,579
6389,554
6391,533
6393,515
6395,499
6397,483
6399,467
6401,452
6403,438
6405,432
6407,424
6409,435
6411,518
6413,584
6415,598
6418,715
6420,808
6422,803
6424,773
6426,753
6428,736
6430,716
6432,691
6434,665
6436,650
6438,638
6440,614
6442,597
6444,585
6446,564
6448,540
6450,523
6452,524
6454,515
6456,494
6458,482
6461,482
6463,469
6465,460
6467,477
6469,470
6471,471
6473,497
6475,522
6477,507
6479,492
6481,477
6483,464
6485,457
6487,475
6489,542
6491,598
6493,597
6495,669
6497,750
6499,768
6501,740
6503,725
6505,708
6507,699
6509,677
6511,654
6513,633
6515,615
6517,603
6519,580
6521,558
6523,535
6525,511
6527,489
6529,467
6531,447
6533,427
6535,408
6537,390
6539,373
6541,357
6543,342
6546,328
6548,315
6550,301
6552,289
6554,279
6556,270
6558,260
6560,254
6562,249
6564,241
6566,231
6568,223
6570,213
6572,204
6574,195
6576,187
6578,179
6580,172
6582,164
6584,158
6586,151
6589,145
6591,139
6593,133
6595,128
6597,127
6599,124
6601,120
6603,116
6605,115
6607,112
6609,112
6611,109
6613,105
6615,101
6617,97
6619,94
6621,91
6623,87
6625,85
6627,85
6629,84
6631,82
6633,82
6635,79
6637,78
6639,77
6641,79
6643,84
6645,82
6647,79
6649,76
6651,74
6653,72
6655,69
6657,71
6659,73
6661,76
6663,76
6665,74
6667,77
6669,75
6671,74
6674,75
6676,80
6678,80
6680,84
6682,85
6684,92
6686,93
6688,91
6690,88
6692,88
6694,88
6696,89
6698,93
6700,95
6702,101
6704,102
6706,103
6708,104
6710,115
6712,119
6714,117
6717,113
6719,114
6721,113
6723,110
6725,106
6727,103
6729,102
6731,99
6733,97
6735,96
6737,93
6739,99
6741,110
6743,112
6745,114
6747,110
6749,120
6751,121
6753,118
6755,114
6757,112
6759,112
6761,125
6763,146
6765,150
6767,166
6769,181
6771,183
6773,185
6775,183
6777,187
6779,187
6781,184
6783,188
6785,187
6787,183
6789,177
6791,172
6793,166
6795,162
6797,161
6799,162
6802,160
6804,155
6806,156
6808,157
6810,157
6812,156
6814,156
6816,150
6818,148
6820,151
6822,160
6824,163
6826,166
6828,167
6830,165
6832,176
6834,174
6836,177
6838,183
6840,182
6842,186
6845,184
6847,194
6849,187
6851,186
6853,192
6855,208
6857,219
6859,220
6861,219
6863,212
6865,206
6867,199
6869,195
6871,193
6873,188
6875,186
6877,199
6879,198
6881,203
6883,208
6885,207
6887,203
6889,196
6891,192
6893,203
6895,201
6897,195
6899,190
6901,189
6903,186
6905,181
6907,175
6909,188
6911,190
6913,190
6915,189
6917,188
6919,187
6921,180
6923,179
6925,177
6927,175
6930,171
6932,170
6934,190
6936,191
6938,190
6940,189
6942,189
6944,195
6946,193
6948,202
6950,201
6952,196
6954,192
6956,189
6958,185
6960,193
6962,197
6964,191
6966,186
6968,184
6970,182
6973,176
6975,172
6977,171
6979,171
6981,169
6983,167
6985,173
6987,174
6989,188
6991,185
6993,180
6995,179
6997,177
6999,174
7001,173
7003,172
7005,171
7007,167
7009,164
7011,163
7013,159
7015,157
7017,155
7019,151
7021,147
7023,141
7025,140
7027,134
7029,131
7031,127
7033,127
7035,141
7037,142
7039,143
7041,137
7043,135
7045,131
7047,130
7049,130
7051,137
7053,134
7055,129
7058,124
7060,119
7062,114
7064,110
7066,106
7068,105
7070,120
7072,143
7074,151
7076,165
7078,200
7080,220
7082,221
7084,240
7086,256
7088,257
7090,256
7092,271
7094,270
7096,284
7098,325
7101,341
7103,378
7105,457
7107,484
7109,466
7111,455
7113,448
7115,439
7117,428
7119,414
7121,398
7123,396
7125,403
7127,423
7129,438
7131,432
7133,442
7135,442
7137,453
7139,467
7141,471
7143,494
7145,536
7147,531
7149,553
7151,563
7153,546
7155,530
7157,528
7159,514
7161,496
7163,482
7165,467
7167,490
7169,529
7171,528
7173,530
7175,550
7177,550
7179,542
7181,538
7183,520
7186,505
7188,500
7190,506
7192,493
7194,514
7196,554
7198,613
7200,645
7202,641
7204,709
7206,755
7208,735
7210,716
7212,687
7214,660
7216,633
7218,632
7220,657
7222,674
7224,657
7226,648
7229,674
7231,707
7233,740
7235,745
7237,722
7239,741
7241,750
7243,726
7245,716
7247,700
7249,718
7251,715
7253,709
7255,751
7257,786
7259,778
7261,793
7263,801
7265,772
7267,750
7269,751
7271,743
7273,764
7275,833
7277,836
7279,909
7281,931
7283,930
7285,930
7287,901
7289,900
7291,931
7293,930
7295,931
7297,931
7299,931
7301,931
7303,931
7305,931
7307,930
7309,931
7311,931
7314,931
7316,931
7318,931
7320,931
7322,931
7324,931
7326,931
7328,931
7330,931
7332,931
7334,931
7336,931
7338,931
7340,931
7342,931
7344,931
7346,931
7348,931
7350,931
7352,931
7354,931
7357,931
7359,931
7361,931
7363,931
7365,931
7367,931
7369,931
7371,931
7373,931
7375,931
7377,931
7379,931
7381,931
7383,931
7385,931
7387,931
7389,931
7391,931
7393,931
7395,931
7397,931
7399,931
7401,931
7403,931
7405,931
7407,931
7409,931
7411,931
7413,931
7415,931
7417,931
7419,931
7421,931
7423,931
7425,931
7427,931
7429,931
7431,931
7433,931
7435,931
7437,931
7439,931
7442,931
7444,931
7446,931
7448,931
7450,931
7452,931
7454,931
7456,931
7458,931
7460,931
7462,931
7464,931
7466,931
7468,931
7470,931
7472,931
7474,931
7476,931
7478,931
7480,931
7482,931
7485,931
7487,931
7489,931
7491,931
7493,931
7495,931
7497,931
7499,931
7501,931
7503,931
7505,931
7507,931
7509,931
7511,931
7513,931
7515,931
7517,931
7519,931
7521,931
7523,931
7525,931
7527,931
7529,932
7531,931
7533,931
7535,931
7537,931
7539,931
7541,931
7543,931
7545,931
7547,931
7549,931
7551,931
7553,931
7555,931
7557,931
7559,931
7561,931
7563,931
7565,931
7567,931
7570,931
7572,931
7574,931
7576,931
7578,931
7580,931
7582,931
7584,932
7586,931
7588,931
7590,931
7592,931
7594,931
7596,931
7598,931
7600,931
7602,931
7604,931
7606,931
7608,931
7610,931
7613,931
7615,931
7617,931
7619,931
7621,931
7623,931
7625,931
7627,931
7629,931
7631,931
7633,931
7635,931
7637,931
7639,931
7641,931
7643,931
7645,931
7647,931
7649,931
7651,931
7653,931
7655,931
7657,931
7659,931
7661,931
7663,931
7665,932
7667,931
7669,931
7671,932
7673,931
7675,931
7677,931
7679,931
7681,932
7683,931
7685,931
7687,931
7689,931
7691,931
7693,931
7695,931
7698,931
7700,931
7702,931
7704,931
7706,932
7708,931
7710,931
7712,931
7714,931
7716,931
7718,931
7720,931
7722,931
7724,931
7726,931
7728,931
7730,931
7732,931
7734,931
7736,931
7738,931
7741,931
7743,931
7745,931
7747,931
7749,931
7751,931
7753,931
7755,931
7757,931
7759,931
7761,931
7763,931
7765,931
7767,931
7769,931
7771,931
7773,931
7775,931
7777,931
7779,931
7781,931
7783,931
7785,931
7787,931
7789,931
7791,931
7793,931
7795,931
7797,931
7799,931
7801,931
7803,931
7805,931
7807,931
7809,931
7811,931
7813,931
7815,931
7817,931
7819,931
7821,931
7823,931
7826,931
7828,931
7830,931
7832,931
7834,931
7836,931
7838,931
7840,931
7842,931
7844,931
7846,931
7848,931
7850,931
7852,931
7854,931
7856,931
7858,931
7860,931
7862,931
7864,931
7866,931
7869,931
7871,931
7873,931
7875,931
7877,931
7879,931
7881,931
7883,931
7885,931
7887,931
7889,931
7891,931
7893,931
7895,931
7897,930
7899,913
7901,875
7903,847
7905,847
7907,833
7909,861
7911,857
7913,848
7915,819
7917,807
7919,788
7921,796
7923,790
7925,781
7927,784
7929,763
7931,737
7933,708
7935,687
7937,664
7939,661
7941,650
7943,660
7945,640
7947,620
7949,605
7951,591
7954,600
7956,590
7958,601
7960,583
7962,558
7964,609
7966,631
7968,699
7970,738
7972,798
7974,796
7976,851
7978,892
7980,907
7982,929
7984,930
7986,898
7988,863
7990,829
7992,797
7994,770
7997,747
7999,716
8001,687
8003,658
8005,642
8007,649
8009,643
8011,646
8013,628
8015,609
8017,598
8019,603
8021,595
8023,608
8025,601
8027,609
8029,604
8031,599
8033,587
8035,570
8037,570
8039,570
8041,602
8043,613
8045,673
8047,670
8049,658
8051,633
8053,612
8055,587
8057,567
8059,550
8061,529
8063,512
8065,502
8067,484
8069,490
8071,480
8073,486
8075,494
8077,486
8079,478
8082,486
8084,482
8086,468
8088,469
8090,482
8092,476
8094,465
8096,447
8098,441
8100,430
8102,438
8104,433
8106,478
8108,529
8110,565
8112,600
8114,600
8116,608
8118,625
8120,631
8122,620
8125,631
8127,616
8129,611
8131,624
8133,608
8135,617
8137,599
8139,580
8141,639
8143,672
8145,718
8147,758
8149,752
8151,724
8153,695
8155,668
8157,653
8159,629
8161,614
8163,607
8165,590
8167,602
8169,623
8171,608
8173,661
8175,705
8177,740
8179,826
8181,809
8183,798
8185,772
8187,744
8189,723
8191,711
8193,690
8195,664
8197,644
8199,643
8201,651
8203,646
8205,663
8207,647
8210,639
8212,640
8214,733
8216,740
8218,753
8220,771
8222,785
8224,808
8226,790
8228,821
8230,799
8232,791
8234,818
8236,804
8238,826
8240,819
8242,826
8244,828
8246,792
8248,765
8250,731
8253,703
8255,675
8257,661
8259,637
8261,625
8263,606
8265,603
8267,607
8269,612
8271,594
8273,605
8275,602
8277,580
8279,563
8281,562
8283,564
8285,572
8287,567
8289,589
8291,636
8293,653
8295,638
8297,614
8299,615
8301,615
8303,599
8305,607
8307,596
8309,598
8311,602
8313,661
8315,656
8317,702
8319,772
8321,762
8323,740
8325,714
8327,695
8329,691
8331,691
8333,668
8335,648
8338,637
8340,641
8342,624
8344,618
8346,656
8348,650
8350,684
8352,755
8354,749
8356,724
8358,696
8360,666
8362,662
8364,695
8366,688
8368,682
8370,668
8372,641
8374,626
8376,628
8378,608
8381,611
8383,632
8385,616
8387,629
8389,616
8391,609
8393,591
8395,593
8397,576
8399,560
8401,558
8403,594
8405,607
8407,595
8409,627
8411,652
8413,653
8415,633
8417,611
8419,602
8421,606
8423,630
8425,705
8427,711
8429,723
8431,770
8433,778
8435,781
8437,784
8439,760
8441,729
8443,703
8445,684
8447,672
8449,654
8451,634
8453,636
8455,633
8457,610
8459,595
8461,587
8463,585
8466,579
8468,558
8470,535
8472,518
8474,499
8476,484
8478,474
8480,478
8482,490
8484,523
8486,515
8488,542
8490,583
8492,601
8494,581
8496,557
8498,543
8500,542
8502,527
8504,503
8506,485
8509,474
8511,457
8513,439
8515,424
8517,416
8519,406
8521,405
8523,407
8525,394
8527,398
8529,404
8531,397
8533,386
8535,371
8537,355
8539,358
8541,407
8543,498
8545,529
8547,556
8549,640
8551,677
8553,718
8555,701
8557,671
8559,642
8561,621
8563,606
8565,623
8567,687
8569,756
8571,761
8573,779
8575,857
8577,909
8579,902
8581,874
8583,838
8585,803
8587,778
8589,778
8591,777
8594,751
8596,735
8598,714
8600,683
8602,654
8604,629
8606,602
8608,575
8610,550
8612,531
8614,534
8616,544
8618,558
8620,558
8622,548
8624,587
8626,634
8628,637
8630,612
8632,591
8634,572
8637,556
8639,544
8641,546
8643,543
8645,524
8647,519
8649,516
8651,504
8653,484
8655,463
8657,444
8659,428
8661,411
8663,395
8665,378
8667,364
8669,360
8671,360
8673,348
8675,346
8677,349
8679,347
8681,336
8683,322
8685,310
8687,296
8689,283
8691,272
8693,261
8695,251
8697,240
8699,230
8701,221
8703,212
8705,203
8707,194
8709,186
8711,178
8713,171
8715,165
8717,160
8719,153
8722,149
8724,143
8726,138
8728,134
8730,130
8732,127
8734,123
8736,118
8738,113
8740,110
8742,105
8744,101
8746,100
8748,96
8750,93
8752,91
8754,89
8756,85
8758,82
8760,79
8762,77
8765,78
8767,77
8769,75
8771,78
8773,79
8775,77
8777,75
8779,72
8781,72
8783,73
8785,74
8787,71
8789,69
8791,67
8793,65
8795,63
8797,63
8799,66
8801,64
8803,67
8805,67
8807,66
8809,64
8811,62
8813,64
8815,62
8817,65
8819,70
8821,72
8823,74
8825,74
8827,75
8829,76
8831,76
8833,79
8835,84
8837,87
8839,91
8841,89
8843,89
8845,88
8847,87
8850,85
8852,89
8854,90
8856,92
8858,91
8860,91
8862,101
8864,99
8866,98
8868,95
8870,93
8872,102
8874,109
8876,115
8878,111
8880,111
8882,110
8884,109
8886,106
8888,116
8890,113
8893,112
8895,110
8897,110
8899,111
8901,110
8903,112
8905,114
8907,112
8909,112
8911,111
8913,108
8915,106
8917,105
8919,108
8921,110
8923,111
8925,117
8927,117
8929,122
8931,135
8933,133
8935,131
8937,125
8939,126
8941,123
8943,120
8945,118
8947,117
8949,115
8951,115
8953,112
8955,109
8957,113
8959,110
8961,109
8963,112
8965,112
8967,109
8969,106
8971,103
8973,104
8975,104
8978,108
8980,109
8982,109
8984,110
8986,119
8988,128
8990,130
8992,137
8994,140
8996,139
8998,138
9000,136
9002,132
9004,131
9006,135
9008,133
9010,128
9012,125
9014,122
9016,123
9018,121
9021,120
9023,123
9025,123
9027,120
9029,128
9031,125
9033,127
9035,126
9037,124
9039,124
9041,120
9043,124
9045,123
9047,122
9049,120
9051,122
9053,118
9055,115
9057,113
9059,116
9061,114
9063,115
9065,118
9067,116
9069,114
9071,111
9073,109
9075,114
9077,118
9079,123
9081,124
9083,121
9085,120
9087,116
9089,111
9091,108
9093,106
9095,104
9097,103
9099,102
9101,99
9103,100
9106,102
9108,105
9110,107
9112,114
9114,112
9116,108
9118,105
9120,103
9122,101
9124,97
9126,94
9128,91
9130,88
9132,86
9134,83
9136,80
9138,78
9140,75
9142,72
9144,70
9146,70
9149,70
9151,68
9153,66
9155,64
9157,69
9159,90
9161,117
9163,133
9165,141
9167,180
9169,212
9171,214
9173,205
9175,197
9177,193
9179,197
9181,202
9183,198
9185,194
9187,196
9189,195
9191,193
9193,193
9195,216
9197,244
9199,250
9201,254
9203,283
9205,304
9207,304
9209,296
9211,294
9213,317
9215,353
9217,356
9219,377
9221,409
9223,399
9225,387
9227,373
9229,360
9231,350
9234,336
9236,337
9238,343
9240,337
9242,355
9244,367
9246,358
9248,362
9250,359
9252,377
9254,379
9256,377
9258,406
9260,432
9262,426
9264,432
9266,455
9268,461
9270,456
9272,468
9274,459
9277,449
9279,461
9281,464
9283,453
9285,465
9287,483
9289,489
9291,495
9293,489
9295,477
9297,494
9299,513
9301,509
9303,488
9305,469
9307,454
9309,460
9311,469
9313,473
9315,552
9317,648
9319,671
9321,669
9323,727
9325,780
9327,775
9329,745
9331,717
9333,702
9335,710
9337,727
9339,717
9341,708
9343,707
9345,729
9347,764
9349,761
9351,742
9353,755
9355,771
9357,786
9359,788
9362,762
9364,757
9366,796
9368,858
9370,872
9372,843
9374,812
9376,796
9378,781
9380,822
9382,827
9384,793
9386,760
9388,739
9390,739
9392,721
9394,741
9396,741
9398,765
9400,793
9402,828
9405,907
9407,909
9409,931
9411,931
9413,931
9415,931
9417,931
9419,931
9421,931
9423,931
9425,931
9427,931
9429,931
9431,931
9433,931
9435,931
9437,931
9439,931
9441,931
9443,931
9445,931
9447,931
9449,931
9451,931
9453,931
9455,931
9457,931
9459,931
9461,931
9463,931
9465,931
9467,931
9469,931
9471,931
9473,931
9475,931
9477,931
9479,931
9481,931
9483,931
9485,931
9487,931
9490,931
9492,931
9494,931
9496,931
9498,931
9500,931
9502,931
9504,931
9506,931
9508,931
9510,931
9512,931
9514,931
9516,931
9518,931
9520,931
9522,931
9524,931
9526,931
9528,931
9530,931
9533,931
9535,931
9537,931
9539,931
9541,931
9543,931
9545,931
9547,931
9549,931
9551,931
9553,931
9555,931
9557,931
9559,931
9561,931
9563,931
9565,931
9567,931
9569,931
9571,931
9573,931
9575,931
9577,931
9579,931
9581,931
9583,931
9585,931
9587,931
9589,931
9591,931
9593,931
9595,931
9597,931
9599,931
9601,931
9603,931
9605,931
9607,931
9609,931
9611,931
9613,931
9615,931
9618,931
9620,931
9622,931
9624,931
9626,931
9628,932
9630,931
9632,931
9634,931
9636,931
9638,931
9640,931
9642,931
9644,931
9646,931
9648,931
9650,931
9652,931
9654,931
9656,932
9658,931
9661,932
9663,931
9665,931
9667,931
9669,931
9671,931
9673,931
9675,931
9677,931
9679,931
9681,931
9683,931
9685,931
9687,931
9689,931
9691,931
9693,931
9695,931
9697,931
9699,931
9701,931
9703,931
9705,931
9707,931
9709,931
9711,931
9713,931
9715,931
9717,931
9719,931
9721,931
9723,931
9725,931
9727,931
9729,931
9731,931
9733,931
9735,931
9737,931
9739,931
9741,931
9743,931
9746,931
9748,931
9750,931
9752,931
9754,931
9756,931
9758,931
9760,931
9762,931
9764,931
9766,931
9768,931
9770,931
9772,931
9774,931
9776,932
9778,931
9780,931
9782,931
9784,931
9786,931
9789,931
9791,931
9793,931
9795,931
9797,931
9799,931
9801,931
9803,931
9805,931
9807,931
9809,931
9811,931
9813,931
9815,931
9817,931
9819,931
9821,931
9823,931
9825,931
9827,931
9829,931
9831,931
9833,931
9835,931
9837,931
9839,931
9841,931
9843,931
9845,931
9847,931
9849,931
9851,931
9853,931
9855,931
9857,931
9859,931
9861,931
9863,931
9865,931
9867,931
9869,931
9871,931
9874,931
9876,931
9878,931
9880,931
9882,931
9884,931
9886,931
9888,932
9890,931
9892,931
9894,931
9896,931
9898,931
9900,931
9902,931
9904,931
9906,931
9908,931
9910,931
9912,931
9914,931
9917,931
9919,931
9921,931
9923,931
9925,931
9927,931
9929,931
9931,931
9933,931
9935,931
9937,931
9939,931
9941,931
9943,931
9945,931
9947,931
9949,931
9951,931
9953,931
9955,931
9957,931
9959,931
9961,931
9963,931
9965,931
9967,931
9969,931
9971,931
9973,931
9975,931
9977,931
9979,931
9981,931
9983,931
9985,931
9987,931
9989,931
9991,931
9993,931
9995,931
9997,931
9999,931
10002,931
10004,931
10006,931
10008,931
10010,931
10012,931
10014,931
10016,931
10018,931
10020,931
10022,931
10024,931
10026,931
10028,925
10030,883
10032,846
10034,878
10036,900
10038,931
10040,931
10042,930
10045,930
10047,893
10049,865
10051,838
10053,813
10055,783
10057,756
10059,725
10061,699
10063,680
10065,682
10067,659
10069,637
10071,617
10073,599
10075,593
10077,577
10079,578
10081,559
10083,548
10085,537
10087,527
10089,522
10091,535
10093,517
10095,515
10097,516
10099,495
10101,486
10103,505
10105,504
10107,525
10109,518
10111,515
10113,523
10115,528
10117,545
10119,550
10121,587
10123,566
10125,544
10127,527
10130,549
10132,541
10134,532
10136,517
10138,533
10140,524
10142,531
10144,538
10146,553
10148,540
10150,539
10152,543
10154,535
10156,557
10158,559
10160,631
10162,649
10164,659
10166,693
10168,696
10170,691
10173,680
10175,667
10177,652
10179,636
10181,616
10183,597
10185,595
10187,611
10189,590
10191,589
10193,582
10195,587
10197,572
10199,561
10201,540
10203,566
10205,628
10207,643
10209,719
10211,719
10213,722
10215,711
10217,701
10219,690
10221,695
10223,702
10225,674
10227,655
10229,659
10231,675
10233,663
10235,649
10237,673
10239,690
10241,669
10243,656
10245,655
10247,729
10249,781
10251,821
10253,876
10255,843
10258,812
10260,783
10262,757
10264,737
10266,759
10268,768
10270,778
10272,766
10274,761
10276,764
10278,807
10280,813
10282,842
10284,825
10286,831
10288,830
10290,822
10292,816
10294,787
10296,777
10298,785
10301,779
10303,786
10305,774
10307,763
10309,747
10311,765
10313,765
10315,762
10317,822
10319,832
10321,833
10323,826
10325,816
10327,895
10329,930
10331,916
10333,885
10335,853
10337,823
10339,788
10341,754
10343,740
10345,727
10347,715
10349,748
10351,739
10353,754
10355,786
10357,780
10359,796
10361,783
10363,784
10365,777
10367,770
10369,744
10371,813
10373,903
10375,907
10377,931
10379,931
10381,931
10383,931
10386,931
10388,931
10390,931
10392,931
10394,931
10396,931
10398,930
10400,912
10402,883
10404,862
10406,836
10408,798
10410,788
10412,809
10414,792
10416,825
10418,820
10420,829
10422,817
10424,801
10426,808
10429,814
10431,806
10433,786
10435,775
10437,805
10439,806
10441,808
10443,859
10445,857
10447,847
10449,840
10451,808
10453,781
10455,757
10457,746
10459,779
10461,767
10463,787
10465,830
10467,810
10469,780
10471,769
10473,770
10475,771
10477,756
10479,735
10481,713
10483,690
10485,691
10487,674
10489,686
10491,672
10493,674
10495,668
10497,654
10499,653
10501,649
10503,648
10505,653
10507,717
10509,779
10511,765
10514,752
10516,743
10518,730
10520,703
10522,673
10524,654
10526,638
10528,613
10530,594
10532,575
10534,568
10536,575
10538,565
10540,543
10542,529
10544,527
10546,509
10548,499
10550,498
10552,488
10554,504
10557,563
10559,586
10561,585
10563,570
10565,588
10567,629
10569,642
10571,643
10573,689
10575,711
10577,709
10579,686
10581,663
10583,647
10585,637
10587,624
10589,601
10591,577
10593,554
10595,532
10597,512
10599,502
10601,483
10603,466
10605,459
10607,468
10609,462
10611,452
10613,448
10615,440
10617,524
10619,598
10621,614
10623,726
10625,814
10627,800
10629,777
10631,760
10633,751
10635,737
10637,723
10639,707
10642,681
10644,667
10646,710
10648,733
10650,750
10652,848
10654,907
10656,889
10658,855
10660,822
10662,794
10664,770
10666,747
10668,722
10670,698
10672,674
10674,650
10676,625
10678,602
10680,579
10682,556
10685,533
10687,510
10689,488
10691,466
10693,446
10695,442
10697,514
10699,588
10701,593
10703,645
10705,710
10707,728
10709,727
10711,725
10713,702
10715,672
10717,647
10719,623
10721,598
10723,572
10725,547
10727,535
10729,514
10731,510
10733,555
10735,589
10737,582
10739,623
10741,657
10743,647
10745,621
10747,594
10749,572
10751,552
10753,533
10755,518
10757,510
10759,512
10761,503
10763,494
10765,505
10767,497
10770,485
10772,489
10774,495
10776,481
10778,485
10780,495
10782,490
10784,473
10786,453
10788,433
10790,421
10792,421
10794,431
10796,426
10798,418
10800,429
10802,431
10804,416
10806,398
10808,381
10810,366
10813,352
10815,337
10817,322
10819,309
10821,298
10823,288
10825,276
10827,264
10829,253
10831,243
10833,232
10835,223
10837,213
10839,205
10841,197
10843,189
10845,182
10847,174
10849,167
10851,163
10853,156
10855,153
10857,147
10859,141
10861,135
10863,132
10865,126
10867,124
10869,121
10871,118
10873,114
10875,112
10877,107
10879,104
10881,101
10883,98
10885,96
10887,94
10889,91
10891,94
10893,96
10895,94
10898,90
10900,87
10902,84
10904,82
10906,80
10908,77
10910,78
10912,81
10914,80
10916,78
10918,76
10920,73
10922,71
10924,71
10926,69
10928,68
10930,70
10932,69
10934,67
10936,65
10938,65
10941,71
10943,69
10945,67
10947,67
10949,65
10951,65
10953,74
10955,79
10957,83
10959,81
10961,88
10963,91
10965,90
10967,88
10969,85
10971,82
10973,79
10975,77
10977,75
10979,75
10981,75
10983,75
10985,75
10987,85
10989,92
10991,94
10993,94
10995,91
10997,94
10999,96
11001,97
11003,96
11005,100
11007,99
11009,97
11011,99
11013,100
11015,108
11017,111
11019,108
11021,104
11023,105
11026,109
11028,106
11030,116
11032,122
11034,128
11036,128
11038,128
11040,126
11042,129
11044,130
11046,145
11048,151
11050,149
11052,148
11054,147
11056,145
11058,149
11060,151
11062,149
11064,148
11066,149
11069,158
11071,158
11073,154
11075,152
11077,149
11079,143
11081,140
11083,137
11085,137
11087,137
11089,134
11091,132
11093,130
11095,130
11097,126
11099,124
11101,136
11103,146
11105,161
11107,164
11109,170
11111,171
11113,164
11115,159
11117,160
11119,154
11121,148
11123,144
11125,150
11127,149
11129,145
11131,140
11133,138
11135,137
11137,134
11139,147
11141,150
11143,167
11145,167
11147,163
11149,161
11151,164
11154,163
11156,156
11158,152
11160,165
11162,159
11164,160
11166,158
11168,161
11170,163
11172,170
11174,165
11176,171
11178,177
11180,176
11182,174
11184,172
11186,166
11188,162
11190,157
11192,151
11194,145
11197,140
11199,134
11201,129
11203,124
11205,120
11207,116
11209,113
11211,110
11213,106
11215,103
11217,104
11219,103
11221,105
11223,101
11225,101
11227,104
11229,108
11231,110
11233,108
11235,106
11237,104
11239,102
11241,98
11243,94
11245,91
11247,88
11249,84
11251,81
11253,78
11255,76
11257,73
11259,70
11261,68
11263,66
11265,66
11267,69
11269,72
11271,71
11273,68
11275,72
11277,86
11279,95
11282,103
11284,129
11286,143
11288,140
11290,141
11292,144
11294,142
11296,138
11298,139
11300,140
11302,137
11304,139
11306,145
11308,143
11310,145
11312,149
11314,146
11316,160
11318,191
11320,210
11322,218
11325,265
11327,295
11329,288
11331,278
11333,267
11335,271
11337,295
11339,314
11341,323
11343,313
11345,302
11347,304
11349,308
11351,306
11353,320
11355,345
11357,341
11359,359
11361,380
11363,391
11365,383
11367,389
11369,410
11371,421
11373,417
11375,434
11377,434
11379,423
11381,429
11383,422
11385,410
11387,411
11389,416
11391,405
11393,391
11395,381
11397,368
11399,359
11401,377
11403,395
11405,389
11407,404
11410,417
11412,403
11414,399
11416,427
11418,435
11420,462
11422,533
11424,556
11426,551
11428,566
11430,562
11432,554
11434,554
11436,573
11438,590
11440,577
11442,589
11444,593
11446,574
11448,550
11450,528
11453,516
11455,516
11457,551
11459,545
11461,587
11463,592
11465,633
11467,633
11469,675
11471,706
11473,707
11475,769
11477,765
11479,822
11481,849
11483,874
11485,931
11487,931
11489,931
11491,931
11493,931
11495,931
11497,931
11499,931
11501,931
11503,931
11505,931
11507,931
11509,931
11511,931
11513,931
11515,931
11517,931
11519,931
11521,931
11523,931
11525,931
11527,931
11529,931
11531,931
11533,931
11535,931
11538,931
11540,931
11542,931
11544,931
11546,931
11548,931
11550,931
11552,931
11554,931
11556,931
11558,931
11560,931
11562,931
11564,931
11566,931
11568,931
11570,931
11572,931
11574,931
11576,931
11578,931
11581,931
11583,931
11585,931
11587,931
11589,931
11591,931
11593,931
11595,931
11597,931
11599,931
11601,931
11603,931
11605,931
11607,931
11609,931
11611,931
11613,931
11615,931
11617,931
11619,931
11621,931
11623,931
11625,931
11627,931
11629,931
11631,931
11633,931
11635,931
11637,931
11639,931
11641,931
11643,931
11645,931
11647,931
11649,931
11651,931
11653,931
11655,931
11657,931
11659,931
11661,931
11663,931
11666,931
11668,931
11670,931
11672,931
11674,931
11676,931
11678,931
11680,931
11682,931
11684,931
11686,931
11688,931
11690,931
11692,931
11694,931
11696,931
11698,931
11700,931
11702,931
11704,931
11706,931
11709,931
11711,931
11713,931
11715,931
11717,931
11719,931
11721,931
11723,931
11725,931
11727,931
11729,931
11731,931
11733,931
11735,931
11737,931
11739,931
11741,931
11743,931
11745,931
11747,931
11749,931
11751,931
11753,931
11755,931
11757,931
11759,931
11761,931
11763,931
11765,931
11767,931
11769,932
11771,931
11773,931
11775,931
11777,932
11779,931
11781,931
11783,931
11785,931
11787,932
11789,931
11791,932
11794,931
11796,931
11798,931
11800,931
11802,931
11804,931
11806,931
11808,931
11810,931
11812,931
11814,931
11816,931
11818,931
11820,931
11822,931
11824,931
11826,931
11828,931
11830,931
11832,931
11834,931
11837,931
11839,931
11841,931
11843,931
11845,931
11847,931
11849,932
11851,932
11853,931
11855,931
11857,931
11859,931
11861,932
11863,931
11865,931
11867,931
11869,931
11871,931
11873,931
11875,931
11877,931
11879,931
11881,931
11883,931
11885,931
11887,932
11889,931
11891,931
11893,931
11895,932
11897,932
11899,931
11901,931
11903,931
11905,932
11907,931
11909,931
11911,931
11913,931
11915,931
11917,931
11919,931
11922,931
11924,931
11926,931
11928,932
11930,931
11932,931
11934,931
11936,931
11938,931
11940,931
11942,931
11944,931
11946,931
11948,931
11950,931
11952,931
11954,931
11956,931
11958,931
11960,931
11962,931
11965,931
11967,931
11969,931
11971,931
11973,931
11975,931
11977,931
11979,931
11981,931
11983,931
11985,931
11987,931
11989,931
11991,931
11993,931
11995,931
11997,931
11999,931
12001,931
12003,931
12005,931
12007,931
12009,931
12011,931
12013,931
12015,931
12017,931
12019,931
12021,931
12023,931
12025,931
12027,931
12029,931
12031,931
12033,931
12035,931
12037,931
12039,931
12041,931
12043,931
12045,931
12047,931
12050,931
12052,931
12054,931
12056,931
12058,931
12060,931
12062,931
12064,931
12066,931
12068,931
12070,931
12072,931
12074,931
12076,931
12078,931
12080,931
12082,931
12084,931
12086,931
12088,931
12090,931
12093,931
12095,931
12097,930
12099,909
12101,869
12103,839
12105,815
12107,815
12109,791
12111,793
12113,781
12115,759
12117,731
12119,701
12121,670
12123,690
12125,695
12127,712
12129,732
12131,707
12133,686
12135,675
12137,650
12139,627
12141,616
12143,594
12145,586
12147,567
12149,550
12151,538
12153,538
12155,531
12157,552
12159,536
12161,517
12163,494
12165,476
12167,479
12169,519
12171,561
12173,564
12175,578
12178,573
12180,576
12182,619
12184,624
12186,602
12188,577
12190,556
12192,535
12194,514
12196,491
12198,475
12200,461
12202,452
12204,438
12206,433
12208,420
12210,429
12212,438
12214,437
12216,444
12218,455
12221,471
12223,469
12225,473
12227,498
12229,505
12231,551
12233,554
12235,537
12237,526
12239,503
12241,482
12243,463
12245,445
12247,434
12249,444
12251,436
12253,437
12255,426
12257,420
12259,438
12261,462
12263,482
12265,537
12267,542
12269,607
12271,651
12273,629
12275,607
12277,582
12279,559
12281,540
12283,538
12285,553
12287,534
12289,528
12291,517
12293,538
12295,544
12297,559
12299,560
12301,635
12303,672
12306,666
12308,662
12310,659
12312,643
12314,625
12316,623
12318,617
12320,595
12322,590
12324,572
12326,562
12328,574
12330,573
12332,564
12334,543
12336,580
12338,671
12340,680
12342,748
12344,760
12346,755
12349,735
12351,743
12353,733
12355,713
12357,747
12359,758
12361,756
12363,747
12365,729
12367,721
12369,743
12371,776
12373,797
12375,801
12377,775
12379,767
12381,782
12383,835
12385,811
12387,804
12389,821
12391,834
12393,843
12395,825
12397,846
12399,845
12401,818
12403,825
12405,836
12407,829
12409,870
12411,880
12413,854
12415,834
12417,806
12419,774
12421,743
12423,723
12425,833
12427,844
12429,908
12431,931
12434,931
12436,931
12438,931
12440,931
12442,930
12444,930
12446,931
12448,931
12450,931
12452,931
12454,931
12456,931
12458,930
12460,896
12462,865
12464,842
12466,808
12468,787
12470,763
12472,754
12474,753
12477,737
12479,715
12481,708
12483,684
12485,698
12487,727
12489,717
12491,686
12493,668
12495,651
12497,656
12499,674
12501,750
12503,745
12505,774
12507,853
12509,859
12511,883
12513,931
12515,931
12517,931
12519,931
12521,931
12523,931
12525,931
12527,931
12529,931
12531,931
12533,931
12535,931
12537,931
12539,931
12541,931
12543,931
12545,931
12547,931
12549,931
12551,931
12553,931
12555,931
12557,930
12559,924
12562,894
12564,926
12566,931
12568,930
12570,931
12572,931
12574,931
12576,931
12578,930
12580,915
12582,881
12584,847
12586,826
12588,801
12590,812
12592,838
12594,823
12596,846
12598,895
12600,870
12602,836
12605,816
12607,813
12609,787
12611,767
12613,755
12615,729
12617,696
12619,668
12621,644
12623,632
12625,622
12627,599
12629,587
12631,565
12633,543
12635,519
12637,497
12639,476
12641,462
12643,482
12645,515
12647,516
12649,510
12651,569
12653,590
12655,648
12657,807
12659,889
12661,866
12663,834
12665,807
12667,832
12669,869
12671,854
12673,869
12675,885
12677,855
12679,825
12681,793
12683,757
12685,724
12687,694
12690,670
12692,647
12694,623
12696,599
12698,591
12700,628
12702,657
12704,649
12706,693
12708,724
12710,710
12712,711
12714,691
12716,682
12718,682
12720,668
12722,703
12724,757
12726,753
12728,778
12730,840
12733,872
12735,855
12737,820
12739,789
12741,766
12743,741
12745,709
12747,682
12749,652
12751,624
12753,599
12755,578
12757,564
12759,551
12761,537
12763,517
12765,496
12767,481
12769,469
12771,458
12773,441
12775,436
12777,426
12779,411
12781,407
12783,413
12785,453
12787,466
12789,472
12791,521
12793,525
12795,543
12797,540
12799,536
12801,550
12803,545
12805,525
12807,513
12809,503
12811,486
12813,484
12815,470
12818,474
12820,464
12822,462
12824,472
12826,459
12828,451
12830,436
12832,433
12834,421
12836,407
12838,394
12840,382
12842,369
12844,359
12846,354
12848,353
12850,346
12852,336
12854,329
12856,318
12858,308
12861,301
12863,299
12865,296
12867,315
12869,328
12871,342
12873,370
12875,375
12877,402
12879,478
12881,521
12883,522
12885,512
12887,492
12889,476
12891,464
12893,453
12895,441
12897,429
12899,416
12901,402
12903,395
12905,380
12907,365
12909,350
12911,335
12913,321
12915,307
12917,293
12919,281
12921,268
12923,257
12925,246
12927,235
12929,225
12931,216
12933,207
12935,199
12937,191
12939,182
12941,176
12943,169
12946,163
12948,158
12950,151
12952,146
12954,140
12956,135
12958,129
12960,124
12962,119
12964,114
12966,110
12968,106
12970,103
12972,99
12974,96
12976,94
12978,91
12980,88
12982,85
12984,83
12986,80
12989,78
12991,77
12993,75
12995,72
12997,71
12999,69
13001,67
13003,64
13005,62
13007,61
13009,59
13011,57
13013,56
13015,56
13017,56
13019,55
13021,55
13023,53
13025,53
13027,52
13029,51
13031,54
13033,60
13035,61
13037,64
13039,69
13041,68
13043,68
13045,65
13047,64
13049,63
13051,61
13053,61
13055,59
13057,58
13059,62
13061,61
13063,70
13065,72
13067,73
13069,73
13071,78
13074,82
13076,79
13078,82
13080,88
13082,92
13084,110
13086,118
13088,127
13090,136
13092,144
13094,159
13096,161
13098,156
13100,152
13102,151
13104,146
13106,147
13108,142
13110,139
13112,137
13114,135
13117,132
13119,139
13121,141
13123,142
13125,150
13127,153
13129,165
13131,174
13133,182
13135,178
13137,178
13139,174
13141,170
13143,173
13145,179
13147,176
13149,175
13151,186
13153,193
13155,202
13157,195
13159,193
13161,194
13163,188
13165,191
13167,193
13169,191
13171,193
13173,200
13175,193
13177,187
13179,180
13181,174
13183,168
13185,163
13187,157
13189,151
13191,149
13193,144
13195,138
13197,146
13199,148
13202,156
13204,154
13206,152
13208,152
13210,158
13212,165
13214,166
13216,165
13218,161
13220,167
13222,164
13224,160
13226,155
13228,155
13230,153
13232,152
13234,149
13236,151
13238,156
13240,165
13242,175
13245,179
13247,183
13249,177
13251,170
13253,166
13255,164
13257,162
13259,163
13261,162
13263,159
13265,157
13267,154
13269,151
13271,150
13273,152
13275,155
13277,171
13279,173
13281,180
13283,186
13285,183
13287,180
13289,174
13291,172
13293,167
13295,161
13297,154
13299,148
13301,143
13303,137
13305,132
13307,127
13309,124
13311,119
13313,117
13315,114
13317,111
13319,108
13321,104
13323,100
13325,96
13327,92
13330,89
13332,85
13334,83
13336,82
13338,81
13340,78
13342,78
13344,78
13346,77
13348,75
13350,72
13352,70
13354,67
13356,65
13358,66
13360,69
13362,68
13364,70
13366,75
13368,74
13370,75
13373,73
13375,75
13377,90
13379,115
13381,127
13383,135
13385,163
13387,183
13389,182
13391,190
13393,194
13395,187
13397,187
13399,192
13401,193
13403,190
13405,193
13407,226
13409,272
13411,285
13413,299
13415,318
13417,346
13419,339
13421,325
13423,317
13425,313
13427,307
13429,300
13431,304
13433,305
13435,297
13437,300
13439,293
13441,301
13443,352
13445,387
13447,385
13449,429
13451,470
13453,465
13455,453
13458,439
13460,443
13462,447
13464,442
13466,430
13468,417
13470,433
13472,450
13474,459
13476,481
13478,501
13480,495
13482,513
13484,569
13486,605
13488,604
13490,592
13492,595
13494,582
13496,565
13498,562
13501,545
13503,565
13505,606
13507,601
13509,606
13511,602
13513,608
13515,615
13517,596
13519,602
13521,612
13523,619
13525,603
13527,594
13529,573
13531,575
13533,577
13535,572
13537,611
13539,616
13541,642
13543,676
13545,717
13547,701
13549,721
13551,732
13553,709
13555,707
13557,708
13559,689
13561,702
13563,710
13565,688
13567,682
13569,659
13571,642
13573,619
13575,594
13577,573
13579,564
13581,562
13583,572
13586,600
13588,594
13590,653
13592,678
13594,657
13596,635
13598,669
13600,679
13602,661
13604,661
13606,723
13608,744
13610,840
13612,931
13614,931
13616,931
13618,931
13620,931
13622,931
13624,931
13626,931
13629,931
13631,931
13633,931
13635,931
13637,931
13639,931
13641,931
13643,931
13645,931
13647,931
13649,931
13651,931
13653,931
13655,931
13657,931
13659,931
13661,931
13663,931
13665,931
13667,931
13669,931
13671,931
13673,931
13675,931
13677,931
13679,931
13681,931
13683,931
13685,931
13687,931
13689,931
13691,931
13693,931
13695,931
13697,931
13699,931
13701,931
13703,931
13705,931
13707,931
13709,931
13711,931
13714,931
13716,931
13718,931
13720,931
13722,931
13724,931
13726,931
13728,931
13730,931
13732,931
13734,931
13736,931
13738,931
13740,931
13742,931
13744,931
13746,931
13748,931
13750,931
13752,931
13754,931
13757,931
13759,931
13761,931
13763,931
13765,931
13767,931
13769,932
13771,931
13773,931
13775,931
13777,932
13779,931
13781,931
13783,931
13785,932
13787,931
13789,931
13791,931
13793,931
13795,931
13797,931
13799,931
13801,931
13803,931
13805,931
13807,931
13809,931
13811,931
13813,931
13815,931
13817,931
13819,931
13821,931
13823,931
13825,931
13827,931
13829,931
13831,931
13833,931
13835,932
13837,931
13839,931
13842,932
13844,931
13846,931
13848,931
13850,931
13852,931
13854,931
13856,932
13858,931
13860,931
13862,931
13864,931
13866,931
13868,931
13870,931
13872,931
13874,931
13876,931
13878,932
13880,932
13882,931
13885,931
13887,932
13889,931
13891,931
13893,931
13895,931
13897,931
13899,931
13901,931
13903,931
13905,931
13907,931
13909,932
13911,931
13913,931
13915,932
13917,931
13919,931
13921,931
13923,931
13925,932
13927,931
13929,932
13931,931
13933,931
13935,931
13937,932
13939,931
13941,932
13943,931
13945,931
13947,931
13949,931
13951,931
13953,931
13955,931
13957,931
13959,932
13961,931
13963,931
13965,931
13967,931
13970,931
13972,931
13974,931
13976,931
13978,931
13980,931
13982,932
13984,931
13986,931
13988,931
13990,931
13992,932
13994,932
13996,931
13998,931
14000,931
14002,931
14004,931
14006,932
14008,931
14010,931
14013,931
14015,931
14017,931
14019,931
14021,931
14023,931
14025,932
14027,931
14029,931
14031,931
14033,931
14035,931
14037,931
14039,931
14041,931
14043,931
14045,931
14047,931
14049,931
14051,931
14053,931
14055,931
14057,931
14059,931
14061,931
14063,931
14065,931
14067,931
14069,931
14071,931
14073,931
14075,931
14077,931
14079,931
14081,931
14083,931
14085,931
14087,931
14089,931
14091,931
14093,931
14095,931
14098,931
14100,931
14102,931
14104,931
14106,931
14108,931
14110,931
14112,931
14114,931
14116,931
14118,931
14120,931
14122,931
14124,931
14126,931
14128,931
14130,931
14132,931
14134,931
14136,931
14138,931
14141,931
14143,931
14145,931
14147,930
14149,908
14151,873
14153,867
14155,881
14157,886
14159,901
14161,876
14163,844
14165,807
14167,772
14169,743
14171,721
14173,707
14175,720
14177,701
14179,685
14181,664
14183,671
14185,701
14187,703
14189,701
14191,677
14193,696
14195,697
14197,736
14199,759
14201,744
14203,715
14205,683
14207,654
14209,641
14211,635
14213,630
14215,639
14217,628
14219,616
14221,593
14223,570
14226,561
14228,561
14230,580
14232,605
14234,597
14236,584
14238,577
14240,581
14242,570
14244,564
14246,550
14248,565
14250,549
14252,534
14254,515
14256,510
14258,496
14260,495
14262,490
14264,492
14266,480
14269,474
14271,503
14273,515
14275,563
14277,554
14279,546
14281,555
14283,555
14285,583
14287,592
14289,595
14291,584
14293,595
14295,597
14297,604
14299,633
14301,641
14303,710
14305,778
14307,762
14309,759
14311,791
14313,826
14315,817
14317,812
14319,784
14321,752
14323,725
14325,704
14327,674
14329,653
14331,624
14333,607
14335,591
14337,581
14339,566
14341,555
14343,536
14345,530
14347,524
14349,511
14351,500
14354,516
14356,530
14358,529
14360,645
14362,686
14364,737
14366,770
14368,764
14370,773
14372,774
14374,754
14376,747
14378,792
14380,827
14382,871
14384,930
14386,907
14388,879
14390,855
14392,858
14394,876
14397,931
14399,931
14401,931
14403,931
14405,931
14407,931
14409,931
14411,931
14413,930
14415,911
14417,897
14419,888
14421,859
14423,856
14425,848
14427,844
14429,879
14431,852
14433,820
14435,783
14437,756
14439,746
14441,736
14443,730
14445,706
14447,694
14449,707
14451,702
14453,699
14455,747
14457,795
14459,784
14461,750
14463,718
14465,702
14467,687
14469,668
14471,659
14473,649
14475,629
14477,618
14479,663
14482,740
14484,741
14486,805
14488,839
14490,824
14492,804
14494,774
14496,744
14498,713
14500,697
14502,760
14504,786
14506,831
14508,908
14510,890
14512,873
14514,884
14516,931
14518,931
14520,931
14522,931
14525,931
14527,931
14529,931
14531,931
14533,930
14535,906
14537,865
14539,833
14541,842
14543,822
14545,816
14547,818
14549,789
14551,760
14553,734
14555,714
14557,689
14559,661
14561,646
14563,631
14565,615
14567,608
14569,592
14571,570
14573,572
14575,567
14577,550
14579,556
14581,544
14583,533
14585,515
14587,521
14589,511
14591,515
14593,502
14595,510
14597,512
14599,544
14601,632
14603,636
14605,697
14607,764
14610,748
14612,735
14614,706
14616,680
14618,650
14620,631
14622,619
14624,609
14626,588
14628,576
14630,565
14632,572
14634,564
14636,543
14638,570
14640,591
14642,594
14644,645
14646,659
14648,659
14650,664
14653,641
14655,622
14657,603
14659,593
14661,577
14663,559
14665,542
14667,531
14669,524
14671,530
14673,513
14675,526
14677,549
14679,542
14681,585
14683,609
14685,601
14687,621
14689,612
14691,588
14693,564
14695,552
14697,538
14699,547
14701,553
14703,538
14705,531
14707,517
14709,507
14711,517
14713,533
14715,559
14717,612
14719,603
14721,643
14723,683
14725,690
14727,680
14729,700
14731,686
14733,703
14735,719
14738,721
14740,761
14742,795
14744,784
14746,779
14748,819
14750,865
14752,862
14754,827
14756,796
14758,767
14760,740
14762,717
14764,694
14766,674
14768,670
14770,688
14772,687
14774,661
14776,645
14778,639
14781,647
14783,656
14785,641
14787,614
14789,588
14791,575
14793,589
14795,603
14797,619
14799,640
14801,624
14803,603
14805,610
14807,635
14809,678
14811,715
14813,703
14815,672
14817,642
14819,629
14821,656
14823,705
14825,799
14827,801
14829,862
14831,931
14833,931
14835,931
14837,923
14839,884
14841,853
14843,825
14845,799
14847,772
14849,745
14851,717
14853,689
14855,660
14857,633
14859,605
14861,578
14863,553
14866,532
14868,516
14870,518
14872,554
14874,572
14876,573
14878,608
14880,614
14882,594
14884,580
14886,563
14888,571
14890,585
14892,582
14894,562
14896,556
14898,555
14900,550
14902,530
14904,521
14906,518
14909,507
14911,485
14913,465
14915,446
14917,429
14919,413
14921,398
14923,381
14925,365
14927,349
14929,336
14931,321
14933,307
14935,294
14937,281
14939,269
14941,257
14943,247
14945,240
14947,251
14949,280
14951,289
14953,289
14955,322
14957,353
14959,349
14961,337
14963,327
14965,315
14967,306
14969,302
14971,307
14973,316
14975,311
14977,311
14979,321
14981,323
14983,312
14985,299
14987,289
14989,276
14991,264
14994,255
14996,245
14998,237
15000,227
15002,218
15004,209
15006,200
15008,193
15010,186
15012,181
15014,175
15016,168
15018,163
15020,157
15022,154
15024,151
15026,154
15028,152
15030,147
15032,142
15034,141
15037,139
15039,134
15041,130
15043,129
15045,128
15047,126
15049,121
15051,117
15053,119
15055,116
15057,113
15059,109
15061,105
15063,103
15065,100
15067,98
15069,99
15071,96
15073,94
15075,93
15077,91
15079,92
15081,97
15083,99
15085,100
15087,103
15089,103
15091,101
15093,98
15095,95
15097,92
15099,91
15101,95
15103,96
15105,94
15107,95
15109,94
15111,95
15113,95
15115,94
15117,95
15119,95
15122,97
15124,96
15126,98
15128,102
15130,99
15132,103
15134,102
15136,167
15138,172
15140,176
15142,178
15144,183
15146,186
15148,180
15150,176
15152,175
15154,172
15156,167
15158,175
15160,170
15162,164
15165,159
15167,153
15169,147
15171,144
15173,146
15175,142
15177,149
15179,154
15181,154
15183,153
15185,150
15187,156
15189,154
15191,156
15193,153
15195,155
15197,169
15199,168
15201,167
15203,163
15205,159
15207,161
15209,161
15211,160
15213,156
15215,153
15217,150
15219,150
15221,146
15223,142
15225,138
15227,138
15229,139
15231,147
15233,150
15235,156
15237,152
15239,166
15241,174
15243,175
15245,173
15247,183
15250,182
15252,179
15254,178
15256,177
15258,178
15260,171
15262,166
15264,162
15266,180
15268,177
15270,175
15272,170
15274,169
15276,173
15278,168
15280,169
15282,167
15284,169
15286,165
15288,167
15290,167
15293,174
15295,186
15297,188
15299,190
15301,184
15303,176
15305,175
15307,172
15309,172
15311,171
15313,173
15315,167
15317,164
15319,158
15321,152
15323,149
15325,144
15327,152
15329,158
15331,168
15333,172
15335,171
15337,172
15339,169
15341,165
15343,159
15345,155
15347,149
15349,144
15351,146
15353,144
15355,147
15357,150
15359,144
15361,142
15363,143
15365,139
15367,135
15369,130
15371,125
15373,122
15375,119
15378,115
15380,116
15382,115
15384,112
15386,107
15388,108
15390,113
15392,123
15394,125
15396,121
15398,126
15400,150
15402,161
15404,175
15406,221
15408,256
15410,262
15412,254
15414,245
15416,242
15418,238
15421,231
15423,225
15425,233
15427,272
15429,319
15431,351
15433,349
15435,379
15437,441
15439,498
15441,514
15443,496
15445,481
15447,470
15449,461
15451,461
15453,472
15455,501
15457,535
15459,569
15461,567
15463,564
15465,603
15467,667
15469,705
15471,700
15473,679
15475,662
15477,638
15479,620
15481,616
15483,624
15485,685
15487,813
15489,903
15491,906
15493,931
15495,931
15497,931
15499,931
15501,931
15503,931
15506,931
15508,931
15510,931
15512,931
15514,931
15516,931
15518,931
15520,931
15522,931
15524,931
15526,931
15528,931
15530,931
15532,931
15534,931
15536,931
15538,931
15540,931
15542,931
15544,931
15546,931
15549,931
15551,931
15553,931
15555,931
15557,931
15559,931
15561,931
15563,931
15565,931
15567,931
15569,931
15571,931
15573,931
15575,931
15577,931
15579,931
15581,931
15583,931
15585,931
15587,931
15589,931
15591,931
15593,931
15595,931
15597,931
15599,929
15601,919
15603,931
15605,931
15607,931
15609,931
15611,931
15613,931
15615,931
15617,931
15619,931
15621,931
15623,931
15625,931
15627,931
15629,931
15631,931
15634,931
15636,931
15638,931
15640,931
15642,931
15644,931
15646,931
15648,931
15650,931
15652,931
15654,931
15656,931
15658,931
15660,931
15662,931
15664,931
15666,931
15668,931
15670,931
15672,931
15674,931
15677,931
15679,931
15681,931
15683,931
15685,931
15687,931
15689,931
15691,931
15693,931
15695,931
15697,931
15699,931
15701,931
15703,931
15705,931
15707,931
15709,931
15711,931
15713,931
15715,931
15717,931
15719,931
15721,931
15723,931
15725,931
15727,931
15729,931
15731,931
15733,931
15735,931
15737,931
15739,931
15741,931
15743,931
15745,931
15747,931
15749,931
15751,931
15753,932
15755,931
15757,931
15759,931
15762,931
15764,931
15766,931
15768,931
15770,931
15772,931
15774,932
15776,931
15778,932
15780,931
15782,931
15784,931
15786,931
15788,931
15790,931
15792,931
15794,931
15796,931
15798,931
15800,931
15802,931
15805,931
15807,931
15809,931
15811,931
15813,931
15815,931
15817,931
15819,931
15821,931
15823,931
15825,932
15827,931
15829,931
15831,931
15833,932
15835,931
15837,932
15839,931
15841,931
15843,931
15845,931
15847,931
15849,931
15851,931
15853,931
15855,931
15857,931
15859,931
15861,931
15863,931
15865,931
15867,931
15869,931
15871,931
15873,932
15875,931
15877,931
15879,931
15881,931
15883,932
15885,931
15887,931
15890,931
15892,931
15894,931
15896,931
15898,931
15900,931
15902,931
15904,931
15906,931
15908,931
15910,931
15912,932
15914,931
15916,931
15918,931
15920,931
15922,932
15924,931
15926,931
15928,931
15930,931
15933,931
15935,931
15937,931
15939,931
15941,931
15943,931
15945,931
15947,931
15949,931
15951,931
15953,931
15955,931
15957,931
15959,931
15961,931
15963,931
15965,931
15967,931
15969,931
15971,931
15973,931
15975,932
15977,931
15979,931
15981,931
15983,931
15985,931
15987,931
15989,931
15991,931
15993,932
15995,932
15997,932
15999,931
16001,931
16003,931
16005,931
16007,931
16009,931
16011,931
16013,931
16015,931
16018,931
16020,931
16022,931
16024,931
16026,931
16028,931
16030,931
16032,932
16034,931
16036,931
16038,931
16040,931
16042,931
16044,931
16046,931
16048,931
16050,931
16052,931
16054,931
16056,931
16058,931
16061,931
16063,931
16065,931
16067,931
16069,931
16071,931
16073,932
16075,931
16077,931
16079,931
16081,931
16083,931
16085,931
16087,931
16089,931
16091,931
16093,931
16095,931
16097,931
16099,931
16101,931
16103,931
16105,931
16107,931
16109,931
16111,931
16113,931
16115,931
16117,931
16119,932
16121,931
16123,931
16125,931
16127,931
16129,931
16131,931
16133,931
16135,931
16137,931
16139,931
16141,931
16143,931
16146,931
16148,931
16150,931
16152,931
16154,931
16156,931
16158,931
16160,931
16162,931
16164,931
16166,931
16168,931
16170,931
16172,931
16174,931
16176,931
16178,931
16180,931
16182,931
16184,931
16186,931
16189,931
16191,931
16193,931
16195,931
16197,931
16199,931
16201,931
16203,931
16205,931
16207,905
16209,879
16211,848
16213,825
16215,793
16217,771
16219,746
16221,719
16223,691
16225,704
16227,714
16229,703
16231,702
16233,682
16235,657
16237,632
16239,604
16241,579
16243,553
16245,533
16247,528
16249,512
16251,506
16253,532
16255,544
16257,592
16259,623
16261,611
16263,622
16265,643
16267,642
16269,630
16271,647
16274,654
16276,646
16278,623
16280,597
16282,579
16284,562
16286,559
16288,557
16290,565
16292,564
16294,554
16296,543
16298,526
16300,508
16302,517
16304,506
16306,511
16308,527
16310,527
16312,555
16314,554
16317,548
16319,537
16321,539
16323,532
16325,534
16327,523
16329,506
16331,486
16333,482
16335,487
16337,523
16339,548
16341,614
16343,656
16345,702
16347,707
16349,746
16351,760
16353,737
16355,706
16357,675
16359,662
16361,635
16363,607
16365,584
16367,566
16369,565
16371,623
16373,635
16375,715
16377,724
16379,720
16381,705
16383,677
16385,658
16387,632
16389,630
16391,615
16393,607
16395,651
16397,726
16399,761
16402,873
16404,930
16406,930
16408,907
16410,910
16412,913
16414,895
16416,857
16418,824
16420,828
16422,806
16424,808
16426,807
16428,847
16430,838
16432,805
16434,784
16436,802
16438,824
16440,799
16442,815
16445,836
16447,821
16449,837
16451,817
16453,820
16455,856
16457,836
16459,852
16461,850
16463,827
16465,820
16467,810
16469,846
16471,828
16473,808
16475,776
16477,746
16479,733
16481,713
16483,695
16485,689
16487,700
16489,695
16491,685
16493,664
16495,649
16497,626
16499,658
16501,791
16503,818
16505,931
16507,931
16509,931
16511,931
16513,930
16515,902
16517,881
16519,846
16521,828
16523,802
16525,786
16527,760
16530,730
16532,703
16534,687
16536,670
16538,749
16540,812
16542,828
16544,910
16546,918
16548,878
16550,847
16552,841
16554,875
16556,855
16558,885
16560,886
16562,872
16564,931
16566,931
16568,931
16570,931
16573,931
16575,931
16577,931
16579,931
16581,931
16583,931
16585,930
16587,915
16589,930
16591,931
16593,930
16595,931
16597,931
16599,927
16601,888
16603,850
16605,827
16607,815
16609,802
16611,805
16613,806
16615,806
16617,789
16619,810
16621,829
16623,807
16625,789
16627,755
16629,727
16631,700
16633,676
16635,659
16637,638
16639,614
16641,605
16643,595
16645,697
16647,723
16649,762
16651,866
16653,871
16655,879
16658,850
16660,823
16662,804
16664,788
16666,776
16668,778
16670,749
16672,719
16674,697
16676,696
16678,705
16680,683
16682,678
16684,668
16686,706
16688,725
16690,732
16692,790
16694,812
16696,789
16698,764
16701,774
16703,765
16705,749
16707,762
16709,749
16711,723
16713,697
16715,671
16717,655
16719,664
16721,668
16723,649
16725,637
16727,635
16729,620
16731,604
16733,580
16735,554
16737,531
16739,518
16741,548
16743,570
16745,598
16747,586
16749,596
16751,628
16753,663
16755,674
16757,661
16759,638
16761,615
16763,608
16765,606
16767,594
16769,574
16771,556
16773,538
16775,522
16777,508
16779,517
16781,557
16783,567
16786,563
16788,604
16790,654
16792,670
16794,652
16796,623
16798,599
16800,576
16802,555
16804,552
16806,577
16808,590
16810,574
16812,580
16814,569
16816,567
16818,565
16820,554
16822,579
16824,586
16826,585
16829,589
16831,575
16833,592
16835,596
16837,583
16839,632
16841,694
16843,696
16845,716
16847,773
16849,801
16851,786
16853,752
16855,721
16857,693
16859,668
16861,644
16863,623
16865,608
16867,598
16869,582
16871,570
16873,545
16875,523
16877,510
16879,500
16881,481
16883,466
16885,463
16887,451
16889,449
16891,466
16893,479
16895,485
16897,491
16899,533
16901,536
16903,556
16905,605
16907,615
16909,593
16911,574
16914,556
16916,537
16918,518
16920,500
16922,483
16924,466
16926,449
16928,434
16930,427
16932,421
16934,406
16936,397
16938,393
16940,383
16942,369
16944,355
16946,344
16948,331
16950,322
16952,317
16954,307
16957,294
16959,281
16961,269
16963,258
16965,247
16967,237
16969,226
16971,217
16973,208
16975,199
16977,190
16979,182
16981,175
16983,169
16985,163
16987,156
16989,150
16991,144
16993,138
16995,132
16997,128
16999,126
17001,122
17003,117
17005,116
17007,112
17009,111
17011,109
17013,106
17015,103
17017,99
17019,96
17021,92
17023,89
17025,86
17027,83
17029,81
17031,79
17033,77
17035,75
17037,72
17039,72
17042,70
17044,68
17046,66
17048,64
17050,62
17052,63
17054,63
17056,62
17058,60
17060,58
17062,60
17064,60
17066,58
17068,57
17070,59
17072,59
17074,59
17076,57
17078,56
17080,58
17082,60
17085,58
17087,59
17089,57
17091,56
17093,56
17095,54
17097,54
17099,53
17101,51
17103,49
17105,48
17107,46
17109,46
17111,46
17113,45
17115,43
17117,43
17119,44
17121,48
17123,57
17125,59
17127,63
17129,63
17131,62
17133,69
17135,73
17137,74
17139,73
17141,70
17143,67
17145,66
17147,66
17149,69
17151,68
17153,74
17155,76
17157,76
17159,80
17161,90
17163,96
17165,94
17167,93
17170,96
17172,98
17174,104
17176,108
17178,113
17180,117
17182,113
17184,112
17186,117
17188,120
17190,127
17192,126
17194,134
17196,140
17198,136
17200,133
17202,130
17204,128
17206,126
17208,126
17210,125
17213,120
17215,116
17217,112
17219,113
17221,126
17223,132
17225,138
17227,150
17229,148
17231,144
17233,139
17235,139
17237,137
17239,135
17241,130
17243,125
17245,125
17247,133
17249,150
17251,158
17253,159
17255,161
17257,166
17259,165
17261,164
17263,161
17265,163
17267,160
17269,160
17271,158
17273,151
17275,145
17277,142
17279,136
17281,131
17283,130
17285,132
17287,130
17289,131
17291,132
17293,128
17295,125
17298,132
17300,131
17302,129
17304,135
17306,136
17308,132
17310,131
17312,127
17314,125
17316,129
17318,133
17320,127
17322,124
17324,126
17326,123
17328,126
17330,123
17332,122
17334,128
17336,125
17338,124
17341,119
17343,119
17345,123
17347,126
17349,130
17351,134
17353,131
17355,125
17357,122
17359,119
17361,114
17363,110
17365,105
17367,101
17369,97
17371,94
17373,90
17375,87
17377,84
17379,81
17381,79
17383,79
17385,78
17387,78
17389,79
17391,85
17393,91
17395,91
17397,103
17399,118
17401,122
17403,122
17405,128
17407,130
17409,130
17411,139
17413,136
17415,139
17417,158
17419,185
17421,208
17423,209
17426,219
17428,235
17430,245
17432,264
17434,295
17436,310
17438,301
17440,293
17442,294
17444,302
17446,312
17448,312
17450,308
17452,317
17454,315
17456,328
17458,358
17460,359
17462,384
17464,392
17466,401
17469,438
17471,441
17473,430
17475,424
17477,427
17479,456
17481,480
17483,498
17485,505
17487,497
17489,501
17491,569
17493,652
17495,666
17497,662
17499,676
17501,660
17503,651
17505,654
17507,640
17509,676
17511,696
17513,700
17515,698
17517,706
17519,692
17521,687
17523,690
17525,758
17527,811
17529,794
17531,814
17533,868
17535,912
17537,916
17539,897
17541,863
17543,846
17545,861
17547,885
17549,869
17551,874
17554,931
17556,931
17558,931
17560,931
17562,931
17564,931
17566,931
17568,931
17570,931
17572,931
17574,931
17576,931
17578,931
17580,931
17582,931
17584,931
17586,931
17588,931
17590,931
17592,931
17594,931
17597,931
17599,931
17601,931
17603,931
17605,931
17607,931
17609,931
17611,931
17613,931
17615,931
17617,931
17619,931
17621,931
17623,931
17625,931
17627,931
17629,931
17631,931
17633,931
17635,931
17637,931
17639,931
17641,931
17643,931
17645,931
17647,931
17649,931
17651,931
17653,931
17655,931
17657,931
17659,931
17661,931
17663,931
17665,931
17667,931
17669,931
17671,931
17673,931
17675,931
17677,931
17679,931
17682,931
17684,931
17686,931
17688,931
17690,931
17692,931
17694,931
17696,931
17698,931
17700,931
17702,931
17704,931
17706,931
17708,931
17710,931
17712,931
17714,931
17716,931
17718,931
17720,931
17722,931
17725,931
17727,931
17729,931
17731,931
17733,931
17735,931
17737,931
17739,931
17741,931
17743,931
17745,931
17747,931
17749,931
17751,931
17753,931
17755,931
17757,931
17759,931
17761,931
17763,931
17765,931
17767,931
17769,931
17771,931
17773,931
17775,931
17777,931
17779,931
17781,931
17783,931
17785,931
17787,931
17789,931
17791,931
17793,931
17795,931
17797,931
17799,931
17801,931
17803,932
17805,931
17807,931
17810,931
17812,931
17814,932
17816,931
17818,931
17820,931
17822,931
17824,931
17826,932
17828,931
17830,931
17832,931
17834,932
17836,931
17838,931
17840,931
17842,931
17844,932
17846,931
17848,931
17850,931
17853,931
17855,931
17857,931
17859,931
17861,931
17863,931
17865,932
17867,931
17869,931
17871,931
17873,931
17875,931
17877,931
17879,931
17881,931
17883,931
17885,931
17887,931
17889,931
17891,931
17893,931
17895,931
17897,932
17899,931
17901,931
17903,931
17905,932
17907,931
17909,931
17911,931
17913,931
17915,931
17917,931
17919,931
17921,931
17923,931
17925,932
17927,931
17929,932
17931,931
17933,931
17935,931
17938,931
17940,931
17942,931
17944,931
17946,932
17948,931
17950,931
17952,931
17954,932
17956,931
17958,931
17960,931
17962,932
17964,931
17966,931
17968,931
17970,931
17972,931
17974,932
17976,931
17978,931
17981,931
17983,931
17985,932
17987,931
17989,931
17991,931
17993,931
17995,931
17997,931
17999,931
18001,931
18003,931
18005,931
18007,931
18009,931
18011,931
18013,931
18015,931
18017,931
18019,931
18021,931
18023,931
18025,932
18027,931
18029,931
18031,931
18033,931
18035,931
18037,931
18039,931
18041,931
18043,931
18045,931
18047,931
18049,931
18051,931
18053,931
18055,931
18057,931
18059,931
18061,931
18063,931
18066,931
18068,931
18070,931
18072,931
18074,931
18076,931
18078,931
18080,931
18082,931
18084,931
18086,931
18088,931
18090,931
18092,931
18094,931
18096,931
18098,931
18100,931
18102,931
18104,931
18106,931
18109,931
18111,931
18113,931
18115,931
18117,931
18119,931
18121,931
18123,931
18125,931
18127,931
18129,931
18131,931
18133,931
18135,931
18137,931
18139,931
18141,931
18143,931
18145,931
18147,931
18149,931
18151,931
18153,931
18155,931
18157,931
18159,931
18161,931
18163,931
18165,931
18167,931
18169,931
18171,931
18173,931
18175,931
18177,924
18179,879
18181,845
18183,821
18185,853
18187,931
18189,931
18191,931
18194,931
18196,931
18198,931
18200,931
18202,931
18204,931
18206,931
18208,931
18210,931
18212,931
18214,931
18216,931
18218,930
18220,922
18222,921
18224,925
18226,930
18228,930
18230,931
18232,931
18234,931
18237,931
18239,930
18241,893
18243,854
18245,823
18247,811
18249,854
18251,833
18253,842
18255,828
18257,826
18259,805
18261,773
18263,743
18265,711
18267,679
18269,649
18271,642
18273,650
18275,638
18277,644
18279,634
18281,610
18283,588
18285,566
18287,545
18289,524
18291,508
18293,512
18295,502
18297,504
18299,509
18301,492
18303,481
18305,498
18307,494
18309,513
18311,506
18313,514
18315,572
18317,613
18319,649
18322,709
18324,742
18326,744
18328,718
18330,688
18332,661
18334,649
18336,636
18338,620
18340,620
18342,646
18344,642
18346,673
18348,653
18350,629
18352,611
18354,611
18356,599
18358,599
18360,600
18362,593
18365,597
18367,576
18369,566
18371,577
18373,572
18375,586
18377,586
18379,630
18381,639
18383,649
18385,674
18387,681
18389,662
18391,632
18393,615
18395,594
18397,577
18399,574
18401,555
18403,563
18405,555
18407,544
18409,531
18411,514
18413,501
18415,484
18417,472
18419,482
18421,485
18423,514
18425,506
18427,535
18429,624
18431,626
18433,692
18435,744
18437,747
18439,742
18441,714
18443,683
18445,654
18447,635
18450,628
18452,614
18454,595
18456,589
18458,586
18460,577
18462,575
18464,585
18466,580
18468,565
18470,647
18472,718
18474,722
18476,792
18478,789
18480,787
18482,790
18484,780
18486,755
18488,764
18490,743
18493,763
18495,795
18497,785
18499,810
18501,795
18503,775
18505,747
18507,730
18509,708
18511,685
18513,668
18515,653
18517,632
18519,609
18521,591
18523,638
18525,645
18527,685
18529,724
18531,720
18533,722
18535,711
18537,689
18539,679
18541,709
18543,700
18545,718
18547,736
18549,714
18551,704
18553,685
18555,656
18557,633
18559,610
18561,599
18563,577
18565,566
18567,549
18569,526
18571,507
18573,505
18575,501
18578,504
18580,548
18582,546
18584,591
18586,585
18588,580
18590,576
18592,609
18594,653
18596,670
18598,688
18600,691
18602,714
18604,760
18606,745
18608,724
18610,721
18612,794
18614,796
18616,839
18618,905
18621,892
18623,910
18625,905
18627,873
18629,864
18631,839
18633,809
18635,776
18637,748
18639,726
18641,722
18643,719
18645,695
18647,685
18649,666
18651,641
18653,614
18655,624
18657,633
18659,632
18661,622
18663,613
18665,619
18667,665
18669,680
18671,655
18673,627
18675,680
18677,729
18679,729
18681,818
18683,890
18685,868
18687,842
18689,829
18691,875
18693,927
18695,914
18697,931
18699,931
18701,931
18703,930
18706,913
18708,900
18710,888
18712,853
18714,835
18716,820
18718,789
18720,761
18722,784
18724,919
18726,931
18728,931
18730,931
18732,931
18734,931
18736,931
18738,931
18740,931
18742,931
18744,931
18746,931
18749,931
18751,931
18753,931
18755,931
18757,930
18759,905
18761,875
18763,896
18765,925
18767,921
18769,884
18771,849
18773,822
18775,806
18777,786
18779,759
18781,728
18783,709
18785,703
18787,688
18789,660
18791,650
18793,629
18795,611
18797,613
18799,601
18801,657
18803,693
18805,698
18807,771
18809,820
18811,810
18813,836
18815,869
18817,850
18819,877
18821,909
18823,885
18825,866
18827,871
18829,875
18831,850
18834,860
18836,855
18838,821
18840,793
18842,763
18844,736
18846,739
18848,745
18850,722
18852,731
18854,731
18856,703
18858,673
18860,650
18862,635
18864,624
18866,624
18868,628
18870,611
18872,601
18874,602
18877,653
18879,750
18881,761
18883,874
18885,931
18887,931
18889,931
18891,931
18893,931
18895,930
18897,910
18899,884
18901,856
18903,824
18905,792
18907,759
18909,727
18911,696
18913,668
18915,642
18917,618
18919,606
18921,580
18923,554
18925,529
18927,509
18929,496
18931,489
18933,473
18935,456
18937,468
18939,505
18941,509
18943,545
18945,612
18947,634
18949,620
18951,598
18953,623
18955,666
18957,671
18959,677
18962,722
18964,725
18966,737
18968,783
18970,782
18972,788
18974,834
18976,850
18978,832
18980,798
18982,768
18984,742
18986,720
18988,698
18990,676
18992,654
18994,630
18996,607
18998,583
19000,560
19002,536
19005,514
19007,493
19009,472
19011,451
19013,431
19015,415
19017,399
19019,381
19021,366
19023,352
19025,337
19027,322
19029,308
19031,299
19033,300
19035,308
19037,300
19039,305
19041,317
19043,317
19045,307
19047,300
19049,287
19051,277
19053,266
19055,255
19057,246
19059,235
19061,226
19063,217
19065,209
19067,200
19069,192
19071,184
19073,176
19075,168
19077,161
19079,155
19081,148
19083,142
19085,136
19087,131
19090,127
19092,123
19094,119
19096,115
19098,112
19100,108
19102,104
19104,100
19106,97
19108,94
19110,93
19112,89
19114,86
19116,85
19118,82
19120,81
19122,78
19124,77
19126,76
19128,73
19130,72
19133,72
19135,72
19137,71
19139,73
19141,71
19143,69
19145,67
19147,65
19149,64
19151,64
19153,61
19155,62
19157,60
19159,59
19161,58
19163,57
19165,57
19167,61
19169,61
19171,60
19173,58
19175,57
19177,56
19179,56
19181,55
19183,54
19185,54
19187,53
19189,52
19191,51
19193,54
19195,53
19197,52
19199,52
19201,51
19203,49
19205,49
19207,49
19209,49
19211,49
19213,48
19215,47
19218,46
19220,48
19222,49
19224,50
19226,52
19228,50
19230,50
19232,54
19234,53
19236,52
19238,51
19240,50
19242,50
19244,49
19246,48
19248,48
19250,51
19252,53
19254,53
19256,51
19258,49
19261,52
19263,51
19265,52
19267,54
19269,59
19271,59
19273,62
19275,67
19277,67
19279,71
19281,73
19283,73
19285,71
19287,71
19289,71
19291,68
19293,66
19295,69
19297,81
19299,84
19301,90
19303,92
19305,90
19307,88
19309,89
19311,89
19313,91
19315,89
19317,88
19319,91
19321,92
19323,93
19325,92
19327,91
19329,96
19331,95
19333,92
19335,90
19337,87
19339,86
19341,87
19343,88
19346,86
19348,86
19350,87
19352,92
19354,112
19356,114
19358,114
19360,118
19362,116
19364,122
19366,129
19368,125
19370,128
19372,129
19374,129
19376,127
19378,123
19380,118
19382,120
19384,121
19386,117
19389,115
19391,118
19393,119
19395,117
19397,113
19399,109
19401,117
19403,121
19405,125
19407,131
19409,132
19411,132
19413,134
19415,138
19417,142
19419,148
19421,142
19423,146
19425,146
19427,143
19429,138
19431,135
19433,131
19435,129
19437,131
19439,130
19441,136
19443,134
19445,135
19447,132
19449,130
19451,131
19453,132
19455,131
19457,128
19459,126
19461,125
19463,124
19465,121
19467,119
19469,115
19471,114
19474,111
19476,111
19478,109
19480,109
19482,108
19484,110
19486,116
19488,115
19490,115
19492,115
19494,114
19496,114
19498,113
19500,110
19502,110
19504,115
19506,114
19508,114
19510,111
19512,108
19514,110
19517,108
19519,109
19521,111
19523,111
19525,106
19527,104
19529,103
19531,102
19533,99
19535,97
19537,98
19539,94
19541,91
19543,89
19545,88
19547,88
19549,88
19551,85
19553,82
19555,79
19557,79
19559,80
19561,81
19563,80
19565,79
19567,82
19569,84
19571,84
19573,98
19575,120
19577,132
19579,137
19581,167
19583,191
19585,194
19587,189
19589,197
19591,206
19593,203
19595,203
19597,209
19599,203
19602,199
19604,193
19606,192
19608,190
19610,188
19612,191
19614,204
19616,205
19618,236
19620,282
19622,290
19624,286
19626,286
19628,275
19630,274
19632,275
19634,266
19636,264
19638,268
19640,289
19642,336
19645,379
19647,381
19649,400
19651,446
19653,470
19655,457
19657,438
19659,422
19661,408
19663,399
19665,389
19667,384
19669,383
19671,403
19673,447
19675,463
19677,463
19679,524
19681,611
19683,666
19685,677
19687,665
19689,650
19691,643
19693,633
19695,639
19697,704
19699,824
19701,917
19703,917
19705,931
19707,931
19709,931
19711,931
19713,931
19715,931
19717,931
19719,931
19721,931
19723,931
19725,931
19727,931
19730,931
19732,931
19734,931
19736,931
19738,931
19740,931
19742,931
19744,931
19746,931
19748,931
19750,931
19752,931
19754,931
19756,931
19758,931
19760,931
19762,931
19764,931
19766,931
19768,931
19770,931
19773,931
19775,931
19777,931
19779,931
19781,931
19783,931
19785,931
19787,931
19789,931
19791,931
19793,931
19795,931
19797,931
19799,931
19801,931
19803,931
19805,931
19807,931
19809,931
19811,931
19813,931
19815,931
19817,931
19819,931
19821,931
19823,931
19825,931
19827,931
19829,931
19831,931
19833,931
19835,931
19837,931
19839,931
19841,931
19843,931
19845,931
19847,931
19849,931
19851,931
19853,931
19855,931
19858,931
19860,931
19862,931
19864,931
19866,931
19868,931
19870,931
19872,931
19874,931
19876,931
19878,931
19880,931
19882,931
19884,931
19886,931
19888,931
19890,932
19892,931
19894,931
19896,931
19898,931
19901,931
19903,931
19905,931
19907,931
19909,931
19911,931
19913,932
19915,931
19917,931
19919,931
19921,931
19923,931
19925,931
19927,931
19929,931
19931,931
19933,931
19935,931
19937,932
19939,931
19941,931
19943,931
19945,931
19947,931
19949,931
19951,931
19953,931
19955,931
19957,931
19959,931
19961,931
19963,931
19965,931
19967,931
19969,931
19971,931
19973,931
19975,931
19977,931
19979,931
19981,931
19983,931
19986,931
19988,931
19990,931
19992,932
19994,931
19996,931
19998,931
20000,931
20002,931
20004,931
20006,931
20008,931
20010,931
20012,932
20014,931
20016,931
20018,931
20020,932
20022,931
20024,931
20026,931
20029,931
20031,931
20033,931
20035,931
20037,931
20039,931
20041,931
20043,931
20045,931
20047,932
20049,931
20051,931
20053,931
20055,932
20057,932
20059,931
20061,931
20063,931
20065,931
20067,931
20069,931
20071,932
20073,931
20075,931
20077,931
20079,931
20081,931
20083,931
20085,931
20087,931
20089,932
20091,931
20093,931
20095,931
20097,931
20099,931
20101,931
20103,931
20105,931
20107,931
20109,931
20111,931
20114,931
20116,931
20118,931
20120,931
20122,931
20124,931
20126,931
20128,931
20130,931
20132,932
20134,931
20136,931
20138,931
20140,931
20142,931
20144,931
20146,931
20148,932
20150,931
20152,932
20154,931
20157,931
20159,931
20161,931
20163,931
20165,931
20167,931
20169,931
20171,931
20173,931
20175,931
20177,931
20179,931
20181,931
20183,931
20185,932
20187,931
20189,931
20191,931
20193,931
20195,931
20197,931
20199,931
20201,931
20203,931
20205,932
20207,932
20209,931
20211,931
20213,931
20215,931
20217,932
20219,931
20221,932
20223,931
20225,931
20227,931
20229,931
20231,931
20233,931
20235,931
20237,931
20239,931
20242,931
20244,931
20246,931
20248,931
20250,931
20252,932
20254,931
20256,931
20258,931
20260,931
20262,931
20264,932
20266,931
20268,931
20270,931
20272,931
20274,931
20276,931
20278,931
20280,931
20282,931
20285,931
20287,931
20289,931
20291,931
20293,931
20295,931
20297,931
20299,931
20301,931
20303,931
20305,931
20307,931
20309,931
20311,931
20313,931
20315,931
20317,931
20319,931
20321,931
20323,931
20325,931
20327,931
20329,931
20331,931
20333,931
20335,931
20337,931
20339,931
20341,931
20343,931
20345,906
20347,874
20349,838
20351,801
20353,765
20355,733
20357,701
20359,670
20361,646
20363,619
20365,607
20367,618
20370,606
20372,621
20374,609
20376,592
20378,583
20380,567
20382,556
20384,536
20386,514
20388,512
20390,550
20392,555
20394,607
20396,604
20398,601
20400,600
20402,585
20404,599
20406,605
20408,590
20410,577
20413,565
20415,541
20417,557
20419,584
20421,599
20423,632
20425,616
20427,599
20429,585
20431,587
20433,575
20435,574
20437,564
20439,546
20441,527
20443,509
20445,494
20447,475
20449,456
20451,438
20453,424
20455,417
20457,414
20459,419
20461,405
20463,398
20465,392
20467,415
20469,415
20471,414
20473,406
20475,398
20477,389
20479,387
20481,378
20483,381
20485,380
20487,379
20489,411
20491,421
20493,428
20495,438
20498,445
20500,470
20502,467
20504,485
20506,489
20508,478
20510,482
20512,588
20514,623
20516,763
20518,789
20520,801
20522,768
20524,735
20526,717
20528,692
20530,664
20532,635
20534,612
20536,590
20538,574
20541,558
20543,538
20545,532
20547,511
20549,491
20551,472
20553,451
20555,439
20557,421
20559,406
20561,414
20563,417
20565,436
20567,452
20569,454
20571,492
20573,493
20575,500
20577,527
20579,522
20581,501
20583,491
20585,487
20587,474
20589,479
20591,467
20593,466
20595,482
20597,475
20599,489
20601,480
20603,491
20605,507
20607,517
20609,548
20611,557
20613,591
20615,578
20617,588
20619,590
20621,577
20623,633
20626,648
20628,639
20630,652
20632,665
20634,776
20636,798
20638,782
20640,755
20642,737
20644,730
20646,715
20648,712
20650,691
20652,683
20654,656
20656,629
20658,622
20660,609
20662,593
20664,591
20666,572
20669,553
20671,533
20673,546
20675,632
20677,646
20679,701
20681,728
20683,709
20685,699
20687,713
20689,716
20691,702
20693,679
20695,664
20697,659
20699,743
20701,799
20703,823
20705,861
20707,899
20709,931
20711,931
20713,931
20715,930
20717,930
20719,931
20721,931
20723,927
20725,927
20727,929
20729,917
20731,931
20733,931
20735,931
20737,931
20739,931
20741,931
20743,931
20745,931
20747,931
20749,931
20751,931
20754,931
20756,931
20758,931
20760,931
20762,929
20764,915
20766,931
20768,931
20770,931
20772,931
20774,923
20776,913
20778,916
20780,930
20782,917
20784,930
20786,930
20788,896
20790,880
20792,930
20794,930
20797,930
20799,929
20801,893
20803,893
20805,914
20807,890
20809,852
20811,821
20813,789
20815,799
20817,852
20819,847
20821,850
20823,865
20825,842
20827,816
20829,798
20831,792
20833,931
20835,931
20837,931
20839,931
20841,931
20843,931
20845,931
20847,931
20849,931
20851,931
20853,931
20855,931
20857,931
20859,931
20861,931
20863,931
20865,931
20867,931
20869,931
20871,931
20873,931
20875,931
20877,931
20879,931
20882,931
20884,931
20886,931
20888,931
20890,931
20892,931
20894,931
20896,914
20898,915
20900,931
20902,931
20904,931
20906,931
20908,931
20910,929
20912,916
20914,922
20916,897
20918,858
20920,819
20922,786
20925,759
20927,742
20929,727
20931,712
20933,762
20935,849
20937,852
20939,894
20941,931
20943,931
20945,931
20947,930
20949,903
20951,873
20953,839
20955,825
20957,807
20959,775
20961,741
20963,717
20965,699
20967,691
20969,671
20971,644
20973,621
20975,599
20977,576
20979,552
20981,533
20983,531
20985,521
20987,500
20989,484
20991,476
20993,532
20995,564
20997,568
20999,630
21001,669
21003,656
21005,667
21007,676
21010,657
21012,670
21014,674
21016,671
21018,685
21020,674
21022,651
21024,622
21026,606
21028,626
21030,657
21032,642
21034,639
21036,620
21038,604
21040,597
21042,581
21044,583
21046,565
21048,557
21050,548
21053,525
21055,502
21057,482
21059,462
21061,441
21063,423
21065,406
21067,395
21069,437
21071,511
21073,543
21075,553
21077,578
21079,564
21081,558
21083,591
21085,642
21087,654
21089,628
21091,610
21093,594
21095,592
21097,596
21099,600
21101,599
21103,582
21105,565
21107,564
21109,561
21111,541
21113,517
21115,495
21117,473
21119,453
21121,435
21123,429
21125,442
21127,450
21129,438
21131,448
21133,461
21135,454
21138,435
21140,416
21142,398
21144,380
21146,366
21148,361
21150,362
21152,373
21154,378
21156,368
21158,383
21160,404
21162,409
21164,399
21166,381
21168,367
21170,364
21172,365
21174,354
21176,348
21178,341
21181,327
21183,313
21185,300
21187,287
21189,274
21191,262
21193,253
21195,247
21197,239
21199,229
21201,220
21203,211
21205,202
21207,196
21209,189
21211,181
21213,175
21215,168
21217,161
21219,154
21221,148
21223,145
21225,139
21227,133
21229,128
21231,125
21233,120
21235,116
21237,113
21239,109
21241,105
21243,101
21245,97
21247,95
21249,93
21251,89
21253,86
21255,83
21257,81
21259,78
21261,77
21263,76
21266,75
21268,76
21270,76
21272,76
21274,75
21276,75
21278,74
21280,73
21282,71
21284,68
21286,68
21288,66
21290,65
21292,63
21294,63
21296,63
21298,62
21300,60
21302,59
21304,59
21306,58
21309,60
21311,60
21313,63
21315,62
21317,63
21319,64
21321,67
21323,66
21325,68
21327,68
21329,66
21331,64
21333,62
21335,65
21337,71
21339,79
21341,80
21343,86
21345,91
21347,90
21349,98
21351,98
21353,96
21355,97
21357,95
21359,101
21361,108
21363,106
21365,114
21367,115
21369,111
21371,110
21373,109
21375,110
21377,112
21379,114
21381,114
21383,122
21385,129
21387,145
21389,152
21391,153
21394,166
21396,173
21398,171
21400,169
21402,169
21404,171
21406,167
21408,170
21410,169
21412,170
21414,167
21416,164
21418,174
21420,178
21422,183
21424,181
21426,178
21428,181
21430,179
21432,172
21434,169
21437,168
21439,182
21441,188
21443,210
21445,217
21447,219
21449,220
21451,218
21453,213
21455,216
21457,214
21459,214
21461,207
21463,200
21465,208
21467,217
21469,222
21471,222
21473,230
21475,240
21477,250
21479,252
21481,256
21483,260
21485,259
21487,256
21489,250
21491,246
21493,239
21495,236
21497,245
21499,254
21501,247
21503,239
21505,235
21507,226
21509,220
21511,220
21513,239
21515,239
21517,240
21519,231
21522,238
21524,236
21526,228
21528,221
21530,218
21532,213
21534,232
21536,243
21538,257
21540,263
21542,262
21544,264
21546,255
21548,253
21550,253
21552,257
21554,281
21556,277
21558,272
21560,265
21562,263
21565,259
21567,254
21569,254
21571,252
21573,246
21575,236
21577,226
21579,226
21581,228
21583,224
21585,231
21587,234
21589,255
21591,256
21593,250
21595,247
21597,243
21599,239
21601,233
21603,235
21605,229
21607,226
21609,220
21611,226
21613,224
21615,220
21617,217
21619,213
21621,222
21623,221
21625,216
21627,216
21629,225
21631,222
21633,224
21635,215
21637,207
21639,198
21641,191
21643,189
21645,190
21647,191
21650,185
21652,180
21654,175
21656,172
21658,167
21660,164
21662,163
21664,160
21666,164
21668,160
21670,153
21672,152
21674,152
21676,153
21678,154
21680,153
21682,150
21684,155
21686,157
21688,162
21690,157
21693,150
21695,145
21697,141
21699,141
21701,144
21703,146
21705,147
21707,154
21709,155
21711,155
21713,179
21715,207
21717,218
21719,211
21721,203
21723,195
21725,186
21727,181
21729,176
21731,191
21733,228
21735,248
21737,270
21739,271
21741,289
21743,291
21745,287
21747,285
21749,315
21751,339
21753,332
21755,324
21757,311
21759,302
21761,327
21763,392
21765,467
21767,509
21769,515
21771,587
21773,660
21775,701
21778,706
21780,685
21782,676
21784,688
21786,716
21788,757
21790,790
21792,778
21794,783
21796,831
21798,866
21800,866
21802,838
21804,810
21806,793
21808,768
21810,801
21812,854
21814,894
21816,877
21818,891
21821,931
21823,931
21825,931
21827,931
21829,925
21831,931
21833,930
21835,931
21837,931
21839,931
21841,931
21843,931
21845,931
21847,931
21849,931
21851,931
21853,931
21855,931
21857,931
21859,931
21861,931
21863,931
21865,931
21867,931
21869,931
21871,931
21873,931
21875,931
21877,931
21879,931
21881,931
21883,931
21885,931
21887,930
21889,928
21891,926
21893,902
21895,879
21897,849
21899,837
21901,859
21903,884
21906,871
21908,836
21910,805
21912,785
21914,772
21916,763
21918,758
21920,771
21922,855
21924,921
21926,910
21928,928
21930,927
21932,931
21934,931
21936,931
21938,931
21940,931
21942,931
21944,931
21946,931
21949,931
21951,931
21953,931
21955,931
21957,931
21959,931
21961,931
21963,931
21965,931
21967,931
21969,931
21971,931
21973,931
21975,931
21977,931
21979,931
21981,931
21983,931
21985,931
21987,931
21989,931
21991,931
21993,931
21995,931
21997,931
21999,931
22001,931
22003,931
22005,931
22007,931
22009,931
22011,931
22013,931
22015,931
22017,931
22019,931
22021,931
22023,931
22025,931
22027,931
22029,931
22031,931
22034,931
22036,931
22038,931
22040,931
22042,931
22044,931
22046,931
22048,931
22050,931
22052,931
22054,931
22056,931
22058,931
22060,931
22062,931
22064,931
22066,931
22068,931
22070,931
22072,931
22074,931
22077,931
22079,931
22081,931
22083,931
22085,931
22087,931
22089,931
22091,931
22093,931
22095,931
22097,931
22099,931
22101,931
22103,931
22105,931
22107,931
22109,931
22111,931
22113,931
22115,931
22117,931
22119,931
22121,931
22123,931
22125,931
22127,931
22129,932
22131,931
22133,931
22135,932
22137,931
22139,931
22141,931
22143,931
22145,931
22147,931
22149,931
22151,931
22153,931
22155,931
22157,931
22159,931
22162,931
22164,931
22166,931
22168,931
22170,932
22172,931
22174,931
22176,931
22178,932
22180,932
22182,931
22184,931
22186,931
22188,931
22190,931
22192,931
22194,931
22196,931
22198,931
22200,931
22202,931
22205,931
22207,931
22209,931
22211,931
22213,931
22215,931
22217,932
22219,931
22221,931
22223,931
22225,931
22227,931
22229,931
22231,931
22233,932
22235,932
22237,931
22239,931
22241,931
22243,931
22245,931
22247,931
22249,932
22251,931
22253,932
22255,931
22257,931
22259,931
22261,931
22263,931
22265,931
22267,931
22269,931
22271,931
22273,931
22275,931
22277,931
22279,931
22281,931
22283,931
22285,931
22287,931
22290,932
22292,931
22294,932
22296,931
22298,931
22300,931
22302,931
22304,931
22306,931
22308,931
22310,931
22312,931
22314,932
22316,931
22318,931
22320,931
22322,931
22324,931
22326,931
22328,931
22330,931
22333,931
22335,932
22337,931
22339,931
22341,932
22343,931
22345,932
22347,931
22349,931
22351,931
22353,931
22355,931
22357,931
22359,932
22361,931
22363,932
22365,931
22367,932
22369,931
22371,931
22373,931
22375,931
22377,932
22379,932
22381,931
22383,931
22385,931
22387,931
22389,931
22391,931
22393,931
22395,931
22397,931
22399,931
22401,932
22403,931
22405,931
22407,931
22409,932
22411,931
22413,931
22415,931
22418,931
22420,931
22422,931
22424,931
22426,931
22428,931
22430,931
22432,931
22434,931
22436,931
22438,931
22440,931
22442,931
22444,931
22446,931
22448,932
22450,931
22452,931
22454,931
22456,931
22458,931
22461,931
22463,931
22465,931
22467,931
22469,931
22471,931
22473,931
22475,931
22477,931
22479,931
22481,931
22483,931
22485,931
22487,931
22489,931
22491,931
22493,931
22495,931
22497,931
22499,931
22501,931
22503,931
22505,931
22507,931
22509,931
22511,931
22513,931
22515,931
22517,931
22519,931
22521,931
22523,930
22525,908
22527,868
22529,839
22531,807
22533,778
22535,771
22537,752
22539,766
22541,754
22543,727
22546,709
22548,703
22550,680
22552,653
22554,626
22556,599
22558,574
22560,548
22562,524
22564,523
22566,509
22568,500
22570,507
22572,496
22574,489
22576,480
22578,485
22580,469
22582,465
22584,479
22586,474
22589,491
22591,490
22593,483
22595,482
22597,463
22599,453
22601,480
22603,484
22605,504
22607,597
22609,613
22611,679
22613,687
22615,662
22617,647
22619,656
22621,642
22623,656
22625,643
22627,653
22629,639
22631,628
22633,634
22635,640
22637,632
22639,632
22641,607
22643,580
22645,573
22647,585
22649,574
22651,568
22653,550
22655,531
22657,520
22659,504
22661,495
22663,507
22665,501
22667,536
22669,534
22671,526
22674,516
22676,494
22678,478
22680,497
22682,505
22684,496
22686,513
22688,502
22690,495
22692,490
22694,496
22696,479
22698,463
22700,443
22702,431
22704,475
22706,478
22708,508
22710,526
22712,588
22714,591
22717,639
22719,651
22721,664
22723,661
22725,662
22727,702
22729,692
22731,717
22733,707
22735,729
22737,716
22739,719
22741,721
22743,697
22745,672
22747,650
22749,636
22751,616
22753,591
22755,572
22757,566
22759,563
22761,600
22763,603
22765,634
22767,701
22769,693
22771,665
22773,645
22775,624
22777,607
22779,624
22781,609
22783,599
22785,583
22787,596
22789,614
22791,597
22793,583
22795,563
22797,583
22799,608
22802,609
22804,662
22806,666
22808,667
22810,648
22812,633
22814,624
22816,611
22818,589
22820,575
22822,579
22824,568
22826,586
22828,691
22830,704
22832,814
22834,893
22836,863
22838,834
22840,806
22842,846
22845,899
22847,885
22849,897
22851,888
22853,853
22855,841
22857,826
22859,798
22861,769
22863,742
22865,713
22867,690
22869,715
22871,795
22873,812
22875,849
22877,913
22879,919
22881,894
22883,855
22885,818
22887,803
22889,779
22891,759
22893,733
22895,749
22897,790
22899,794
22901,830
22903,888
22905,894
22907,913
22909,908
22911,904
22913,916
22915,890
22917,862
22919,831
22921,837
22923,819
22925,792
22927,767
22930,756
22932,766
22934,760
22936,755
22938,744
22940,716
22942,692
22944,676
22946,652
22948,638
22950,618
22952,599
22954,577
22956,552
22958,535
22960,520
22962,499
22964,488
22966,477
22968,495
22970,575
22973,665
22975,670
22977,778
22979,909
22981,912
22983,888
22985,858
22987,856
22989,835
22991,815
22993,804
22995,810
22997,796
22999,766
23001,742
23003,752
23005,762
23007,742
23009,778
23011,815
23013,795
23015,777
23017,743
23019,714
23021,691
23023,672
23025,660
23027,654
23029,647
23031,646
23033,663
23035,664
23037,666
23039,657
23041,707
23043,763
23045,787
23047,767
23049,739
23051,761
23053,795
23055,787
23058,794
23060,799
23062,778
23064,767
23066,741
23068,745
23070,734
23072,746
23074,747
23076,732
23078,746
23080,732
23082,745
23084,747
23086,723
23088,721
23090,705
23092,682
23094,666
23096,645
23098,638
23101,615
23103,605
23105,595
23107,576
23109,554
23111,532
23113,519
23115,502
23117,481
23119,468
23121,467
23123,495
23125,508
23127,505
23129,548
23131,582
23133,598
23135,735
23137,840
23139,847
23141,931
23143,931
23145,931
23147,931
23149,931
23151,931
23153,931
23155,931
23157,931
23159,931
23161,930
23163,919
23165,885
23167,854
23169,823
23171,801
23173,784
23175,756
23177,732
23179,719
23181,697
23183,667
23186,638
23188,615
23190,631
23192,669
23194,675
23196,667
23198,697
23200,717
23202,706
23204,679
23206,657
23208,628
23210,604
23212,582
23214,562
23216,539
23218,517
23220,500
23222,504
23224,525
23226,532
23229,516
23231,519
23233,531
23235,531
23237,527
23239,524
23241,509
23243,487
23245,468
23247,451
23249,436
23251,424
23253,420
23255,422
23257,412
23259,403
23261,402
23263,390
23265,377
23267,365
23269,352
23271,348
23273,339
23275,328
23277,314
23279,303
23281,297
23283,297
23285,303
23287,311
23289,305
23291,310
23293,335
23295,349
23297,340
23299,325
23301,312
23303,303
23305,294
23307,283
23309,273
23311,269
23314,266
23316,256
23318,250
23320,244
23322,236
23324,226
23326,216
23328,208
23330,200
23332,192
23334,186
23336,179
23338,172
23340,165
23342,159
23344,153
23346,147
23348,142
23350,137
23352,132
